reading_id,reading_time,wire_id,result_classification,heart_rate,heart_rate_alert,firmware_version,device_app_version,hardware_version,waveform_samples
0a71bf80-9280-11ee-8080-808080808080,Mon Dec 04 08:35:12 UTC 2023,e150772d2e39,UNREADABLE,0,NONE,20001.188.58,2.13.0,Charge 5,[24  681  1074  1171  1110  1014  932  861  791  729  694  675  632  535  410  332  364  518  790  1110  1339  1424  1410  1312  1104  941  1140  1611  1806  1509  985  564  594  1318  2445  3309  3505  3009  2094  1403  1478  2143  2799  3007  2623  1851  1138  724  529  469  529  678  844  950  989  1026  1108  1210  1275  1291  1288  1272  1173  915  557  269  153  181  301  516  839  1246  1701  2190  2666  3028  3164  3025  2662  2191  1730  1345  1043  840  778  832  928  997  962  788  534  301  169  174  297  476  627  710  737  739  737  744  761  774  742  609  373  119  -52  -111  -92  -25  108  339  631  903  1106  1244  1339  1410  1449  1429  1316  1107  927  986  1335  1801  2180  2388  2451  2416  2267  1991  1668  1409  1248  1201  1385  1920  2669  3269  3501  3440  3280  3151  3086  3051  2981  2802  2519  2255  2114  2053  1951  1779  1618  1538  1520  1488  1392  1244  1098  1000  950  874  685  377  -59  -743  -1693  -2634  -3162  -3062  -2460  -1777  -1457  -1538  -1692  -1561  -856  413  1659  2077  1356  0  -1020  -1061  -263  709  1158  839  177  -304  -517  -608  -693  -846  -1090  -1403  -1739  -1980  -2010  -1868  -1697  -1536  -1319  -1048  -817  -680  -608  -570  -541  -492  -424  -375  -374  -413  -435  -310  69  593  988  1122  1037  798  508  312  266  301  296  137  -197  -559  -721  -570  -188  226  513  527  0  -1248  -2842  -4043  -4524  -4538  -4423  -4334  -4355  -4573  -5003  -5534  -6019  -6385  -6626  -6768  -6859  -6944  -7013  -7014  -6935  -6819  -6707  -6627  -6592  -6598  -6617  -6615  -6554  -6462  -6437  -6482  -6448  -6313  -6227  -6226  -6168  -5952  -5663  -5417  -5047  -4259  -3211  -2435  -2135  -2059  -1984  -1908  -1876  -1873  -1860  -1819  -1803  -1916  -2144  -2329  -2377  -2317  -2203  -2099  -2054  -2011  -1842  -1479  -981  -556  -451  -709  -1129  -1434  -1441  -1188  -879  -649  -466  -240  12  194  314  474  719  1011  1292  1667  2433  3626  4665  4935  4646  4502  4756  5132  5108  4191  2464  738  -53  355  1486  2601  3121  3007  2671  2461  2547  2884  3210  3377  3453  3513  3578  3666  3753  3808  3848  3901  3931  3825  3484  2994  2541  2164  1830  1592  1469  1368  1227  1080  979  949  993  1078  1158  1211  1230  1169  964  632  290  30  -122  -161  -44  301  883  1527  1930  1862  1297  500  -116  -377  -383  -254  -62  91  118  51  -8  -6  53  139  229  316  387  435  437  297  -113  -753  -1369  -1743  -1880  -1897  -1855  -1724  -1461  -1141  -902  -745  -539  -257  -20  63  -66  -436  -920  -1276  -1395  -1326  -1133  -895  -695  -545  -416  -313  -233  -166  -121  -106  -112  -125  -137  -134  -101  -48  3  33  38  15  -70  -247  -468  -650  -765  -775  -516  146  1023  1687  1915  1802  1552  1325  1199  1159  1149  1159  1260  1504  1779  1881  1708  1319  966  948  1222  1461  1521  1543  1710  2008  2222  2190  1971  1673  1362  1110  943  816  671  498  379  502  1045  1899  2663  3074  3202  3161  2933  2540  2113  1762  1522  1390  1316  1232  1138  1152  1400  1801  2121  2279  2392  2532  2704  3110  4075  5545  6746  6600  4904  2757  1550  2128  4459  7302  8778  7940  5487  2913  1391  1107  1303  1135  476  -76  19  541  937  1087  1209  1438  1721  1868  1665  1142  591  179  -125  -330  -425  -395  -152  361  1016  1629  2241  2980  3763  4387  4771  4972  5133  5459  6117  7058  7978  8570  8795  8784  8568  8127  7608  7275  7280  7597  8044  8363  8392  8117  7659  7226  6936  6723  6485  6295  6460  7250  8448  9535  10298  10712  10610  9985  9163  8454  7996  7865  8150  8838  9645  10170  10249  9987  9574  9134  8648  8050  7341  6483  5301  3708  1950  370  -1028  -2450  -4006  -5769  -7704  -9498  -10766  -11413  -11635  -11793  -12211  -12826  -13247  -13200  -12705  -12027  -11523  -11344  -11402  -11595  -11845  -12013  -11893  -11326  -10448  -9676  -9278  -9192  -9237  -9194  -8780  -7879  -6827  -6138  -5980  -6182  -6550  -6951  -7226  -7203  -6870  -6394  -5923  -5539  -5298  -5159  -5005  -4754  -4425  -4122  -3929  -3841  -3817  -3829  -3866  -3926  -3993  -4035  -3992  -3827  -3567  -3204  -2748  -2377  -2152  -1983  -1917  -2001  -2157  -2378  -2778  -3486  -4577  -5925  -7134  -7753  -7612  -6998  -6492  -6448  -6673  -6813  -6813  -6784  -6758  -6717  -6662  -6621  -6601  -6584  -6547  -6469  -6326  -6076  -5683  -5237  -4933  -4845  -4881  -4921  -4871  -4676  -4392  -4150  -4011  -3949  -3927  -3894  -3783  -3537  -3148  -2706  -2366  -2200  -2119  -1964  -1664  -1310  -1051  -934  -893  -833  -702  -529  -362  -199  -21  163  355  569  774  894  904  876  884  934  1007  1105  1209  1269  1251  1146  933  620  316  184  275  476  618  618  492  288  72  -59  -16  223  557  815  938  981  991  987  982  985  992  1000  1001  993  967  914  836  762  721  721  795  985  1243  1453  1575  1644  1682  1699  1725  1780  1864  1966  2066  2151  2222  2255  2168  1867  1377  845  431  259  380  730  1152  1480  1634  1657  1644  1654  1690  1727  1759  1803  1877  1967  2028  2030  1973  1893  1832  1801  1787  1778  1768  1760  1774  1844  1953  1980  1876  1826  2079  2623  3173  3478  3511  3360  3099  2772  2404  2058  1825  1710  1636  1569  1511  1444  1363  1273  1199  1196  1296  1473  1683  1879  2010  2016  1859  1563  1260  1118  1152  1262  1384  1467  1499  1570  1789  2161  2597  2998  3288  3451  3512  3439  3177  2786  2433  2222  2093  1917  1671  1453  1347  1326  1294  1184  1016  859  734  614  480  349  254  205  190  197  245  366  559  761  897  946  947  951  990  1052  1108  1153  1197  1216  1146  944  672  465  387  398  449  530  640  744  800  835  945  1187  1482  1692  1760  1729  1666  1605  1549  1525  1593  1782  2018  2160  2168  2140  2086  1912  1661  1457  1319  1191  1031  822  561  295  112  53  69  69  12  -69  -144  -205  -274  -362  -453  -519  -538  -515  -510  -574  -663  -687  -644  -607  -603  -551  -353  -16  311  486  471  300  58  -140  -244  -259  -177  13  243  414  490  504  481  412  287  137  25  -44  -151  -344  -540  -597  -476  -282  -150  -126  -165  -214  -256  -300  -359  -427  -473  -486  -494  -526  -581  -634  -653  -596  -433  -221  -61  10  27  19  0  -9  15  78  148  209  258  286  285  285  349  522  753  929  997  991  939  843  712  576  454  363  310  285  270  255  213  135  71  90  177  237  216  139  48  -54  -174  -284  -365  -426  -454  -422  -334  -217  -127  -134  -242  -388  -519  -600  -552  -257  283  843  1171  1222  1103  930  780  657  485  194  -199  -608  -971  -1264  -1467  -1577  -1620  -1625  -1624  -1659  -1775  -1968  -2169  -2328  -2497  -2730  -2967  -3114  -3154  -3107  -2982  -2807  -2655  -2588  -2658  -2911  -3288  -3636  -3875  -4033  -4132  -4172  -4175  -4179  -4213  -4305  -4499  -4810  -5145  -5348  -5327  -5092  -4766  -4539  -4520  -4692  -4943  -5140  -5231  -5258  -5282  -5341  -5453  -5624  -5831  -6024  -6126  -6015  -5584  -4935  -4392  -4200  -4384  -4808  -5209  -5393  -5447  -5567  -5835  -6215  -6541  -6615  -6506  -6545  -6939  -7640  -8504  -9350  -10014  -10351  -10187  -9624  -9055  -8705  -8520  -8394  -8251  -8051  -7806  -7552  -7342  -7221  -7157  -7016  -6657  -6116  -5560  -4978  -4150  -2925  -1458  -199  508  814  1115  1561  2008  2288  2362  2300  2211  2164  2159  2179  2256  2522  3106  3883  4509  4801  4836  4758  4661  4598  4577  4582  4604  4648  4732  4894  5232  5804  6464  6945  7147  7164  7072  6870  6599  6361  6208  6118  6089  6198  6522  7017  7574  8159  8749  9243  9543  9657  9676  9706  9810  9935  9905  9593  9121  8756  8588  8441  8055  7223  5972  4745  4066  4010  4303  4584  4579  4386  4262  4142  3769  2967  1742  439  -364  -360  176  686  901  943  978  1016  994  876  702  558  486  472  514  648  870  1116  1329  1482  1565  1620  1691  1723  1654  1548  1518  1584  1671  1683  1585  1391  1121  838  626  504  410  305  267  368  518  588  562  435  54  -660  -1373  -1789  -2003  -1877  -1140  30  1659  3880  5795  6343  5743  4836  4227  4328  4996  5448  5311  4916  4539  4273  4200  4262  4335  4374  4366  4253  3993  3663  3399  3241  3154  3136  3194  3276  3317  3295  3215  3101  2968  2801  2619  2497  2473  2493  2434  2161  1672  1135  703  416  291  353  564  768  778  601  408  301  230  87  -179  -492  -717  -787  -682  -397  -33  225  309  286  232  183  154  152  170  190  172  79  -59  -178  -246  -275  -293  -320  -348  -352  -344  -374  -495  -698  -903  -1014  -1002  -934  -898  -903  -905  -874  -830  -864  -1141  -1727  -2406  -2845  -2922  -2752  -2515  -2360  -2351  -2470  -2639  -2773  -2828  -2781  -2597  -2307  -2041  -1913  -1916  -1974  -2044  -2140  -2267  -2390  -2470  -2490  -2460  -2416  -2394  -2402  -2423  -2447  -2464  -2429  -2274  -1990  -1673  -1446  -1379  -1460  -1594  -1661  -1596  -1431  -1244  -1094  -1017  -1039  -1161  -1335  -1482  -1562  -1578  -1540  -1470  -1401  -1366  -1372  -1403  -1444  -1487  -1531  -1578  -1623  -1642  -1633  -1632  -1660  -1696  -1715  -1722  -1730  -1733  -1687  -1557  -1383  -1233  -1073  -802  -436  -125  35  93  130  179  239  302  360  396  368  192  -213  -777  -1259  -1496  -1529  -1427  -1206  -933  -758  -770  -916  -1080  -1178  -1209  -1219  -1233  -1227  -1178  -1109  -1062  -1039  -1015  -975  -938  -927  -923  -879  -785  -681  -603  -551  -502  -461  -437  -416  -383  -345  -307  -263  -226  -224  -264  -323  -363  -370  -345  -277  -166  -55  9  18  -9  -53  -84  -47  114  376  618  745  756  685  557  413  304  251  239  230  186  108  9  -142  -360  -583  -737  -812  -859  -905  -929  -909  -856  -794  -721  -631  -556  -546  -622  -746  -823  -787  -681  -585  -528  -485  -440  -441  -534  -668  -739  -710  -630  -566  -540  -521  -480  -423  -358  -303  -314  -411  -532  -617  -648  -624  -550  -428  -285  -188  -201  -336  -525  -666  -720  -720  -696  -650  -581  -488  -388  -334  -374  -499  -681  -876  -1003  -978  -784  -507  -293  -210  -214  -256  -327  -426  -528  -583  -525  -313  -20  199  266  202  45  -163  -383  -589  -762  -877  -929  -909  -777  -521  -215  20  137  174  195  220  236  236  229  207  148  70  31  56  112  148  149  118  37  -123  -329  -495  -587  -609  -556  -440  -300  -186  -138  -146  -182  -233  -296  -359  -412  -446  -472  -505  -533  -521  -475  -420  -325  -122  218  682  1291  2027  2668  2991  2985  2640  1990  1380  1116  1060  935  645  249  -65  -142  -10  188  327  373  365  329  263  179  118  106  143  218  307  367  368  306  207  116  56  21  13  90  310  605  804  822  727  618  544  510  504  511  531  565  611  654  690  755  889  1055  1173  1216  1223  1232  1244  1254  1277  1335  1417  1482  1508  1514  1529  1563  1601  1606  1545  1409  1208  964  740  601  550  546  556  560  529  425  240  35  -100  -140  -119  -71  -16  22  38  33  0  -64  -100  -34  109  216  224  173  124  67  -39  -180  -285  -325  -329  -318  -283  -214  -119  -21  54  106  139  154  150  129  88  16  -79  -167  -237  -303  -360  -390  -385  -352  -308  -278  -267  -264  -267  -290  -341  -387  -383  -340  -316  -331  -365  -410  -457  -495  -521  -524  -491  -415  -315  -261  -295  -367  -401  -375  -311  -271  -293  -345  -380  -399  -414  -390  -252  25  333  527  561  469  290  76  -125  -314  -498  -657  -746  -689  -487  -280  -233  -404  -714  -1002  -1036  -609  121  664  662  112  -705  -1289  -1260  -788  -381  -291  -404  -517  -513  -427  -333  -193  70  444  837  1178  1435  1611  1722  1770  1714  1506  1177  818  464  123  -134  -254  -269  -237  -181  -112  -44  6  13  -31  -86  -119  -187  -363  -609  -783  -792  -658  -478  -338  -264  -243  -247  -237  -197  -149  -112  -79  -35  39  137  210  226  197  157  119  69  6  -36  -4  128  309  434  462  447  489  649  877  1049  1118  1131  1124  1067  916  713  599  678  928  1214  1375  1340  1143  850  547  320  177  57  -73  -191  -272  -330  -386  -426  -419  -359  -274  -196  -144  -113  -88  -85  -142  -284  -481  -650  -729  -701  -587  -462  -386  -347  -325  -314  -305  -298  -290  -274  -243  -194  -135  -86  -56  -49  -93  -197  -325  -430  -475  -398  -144  209  459  455  193  -171  -442  -558  -585  -551  -459  -367  -327  -330  -345  -346  -301  -175  11  170  235  232  221  202  130  -18  -194  -313  -328  -242  -102  22  80  64  3  -72  -158  -259  -340  -343  -255  -124  -5  61  79  75  63  44  17  1  20  80  144  168  169  189  204  165  58  -79  -171  -205  -250  -317  -355  -372  -407  -442  -448  -422  -386  -343  -290  -251  -280  -399  -526  -526  -380  -191  -38  49  25  -78  -57  282  891  1499  1843  1848  1639  1437  1358  1268  952  387  -246  -715  -830  -658  -480  -380  -256  -116  -30  -30  -99  -200  -318  -432  -500  -518  -512  -499  -476  -438  -393  -344  -299  -270  -262  -264  -269  -275  -276  -252  -175  -45  92  190  239  255  273  329  422  509  560  580  590  606  644  717  812  910  1010  1106  1178  1222  1270  1358  1473  1571  1642  1700  1715  1639  1470  1222  885  529  293  216  187  105  -7  -72  -73  -62  -87  -160  -267  -371  -435  -447  -431  -419  -449  -543  -671  -764  -798  -805  -816  -820  -753  -558  -290  -89  -24  -61  -154  -258  -328  -349  -344  -337  -334  -336  -346  -370  -428  -540  -679  -779  -813  -811  -795  -759  -684  -566  -435  -328  -273  -276  -324  -407  -523  -651  -736  -761  -761  -763  -766  -772  -798  -854  -923  -932  -817  -640  -539  -555  -608  -632  -617  -569  -487  -385  -317  -345  -497  -716  -911  -1051  -1129  -1087  -904  -661  -471  -381  -351  -326  -297  -270  -215  -99  25  59  -12  -136  -270  -383  -474  -586  -728  -860  -952  -1005  -1028  -1031  -1028  -1026  -1026  -1020  -986  -894  -753  -613  -513  -465  -465  -506  -575  -642  -679  -667  -592  -406  7  709  1514  2153  2521  2663  2752  2974  3209  3107  2490  1487  466  -187  -357  -190  73  162  -32  -300  -385  -263  -52  136  249  292  297  300  335  395  407  314  163  44  -16  -46  -84  -136  -171  -143  -27  131  256  346  469  670  903  1078  1142  1098  1000  927  916  942  975  998  1016  1053  1126  1214  1289  1348  1402  1467  1585  1790  1981  1976  1767  1528  1379  1302  1240  1162  1084  1053  1068  1051  939  742  504  287  151  91  50  1  -34  -35  -12  -5  -63  -205  -378  -485  -485  -434  -395  -377  -374  -403  -487  -607  -711  -772  -781  -727  -606  -430  -248  -130  -104  -129  -154  -135  -54  69  187  253  233  93  -157  -410  -543  -533  -443  -340  -263  -222  -193  -137  -59  3  32  45  49  4  -144  -377  -617  -829  -1027  -1191  -1228  -1068  -770  -478  -288  -211  -201  -208  -208  -210  -227  -256  -296  -359  -448  -529  -567  -549  -463  -310  -133  -14  5  -2  64  181  221  125  -43  -184  -249  -273  -307  -362  -434  -553  -758  -1019  -1237  -1321  -1235  -997  -695  -455  -367  -455  -694  -998  -1250  -1383  -1380  -1195  -791  -273  125  200  -17  -205  -111  197  569  975  1477  2163  2918  3332  3100  2289  1165  199  -159  -5  202  276  300  264  127  -27  -120  -156  -170  -192  -211  -187  -95  31  128  168  164  110  0  -107  -112  -12  106  197  265  310  327  326  329  354  389  412  417  420  444  491  541  572  581  581  575  557  529  523  594  790  1098  1394  1543  1551  1525  1511  1461  1323  1130  989  947  969  1004  1026  1016  957  866  792  742  669  532  363  223  120  17  -105  -246  -380  -473  -517  -531  -520  -463  -338  -174  -33  36  40  17  3  6  11  -7  -72  -167  -246  -289  -319  -351  -376  -366  -301  -190  -68  27  79  93  92  85  58  -1  -85  -165  -217  -240  -238  -208  -144  -69  -12  38  109  157  117  39  83  316  601  740  651  388  57  -246  -442  -515  -516  -482  -410  -306  -204  -139  -101  -62  -20  11  33  47  51  34  -27  -168  -391  -627  -785  -862  -927  -1008  -1078  -1115  -1123  -1120  -1112  -1067  -934  -720  -521  -412  -392  -427  -507  -606  -669  -655  -576  -491  -442  -439  -473  -454  -244  152  621  1109  1564  1907  2176  2418  2500  2284  1798  1167  569  224  230  444  613  601  468  353  302  292  305  355  454  573  664  703  709  704  683  626  517  368  216  107  97  228  462  699  862  936  943  928  932  969  1018  1019  909  666  340  47  -109  -139  -107  -52  13  66  65  -7  -126  -241  -314  -370  -474  -642  -814  -924  -958  -979  -1039  -1111  -1149  -1162  -1166  -1163  -1159  -1182  -1271  -1419  -1573  -1673  -1697  -1660  -1618  -1626  -1674  -1715  -1733  -1733  -1723  -1712  -1700  -1666  -1558  -1339  -1049  -798  -670  -649  -669  -693  -736  -832  -978  -1113  -1180  -1160  -1040  -829  -585  -383  -258  -200  -193  -234  -305  -376  -441  -511  -579  -619  -616  -572  -513  -475  -469  -481  -472  -399  -244  -41  135  216  190  114  50  4  -49  -112  -158  -175  -171  -145  -90  -3  96  172  200  189  163  144  140  162  234  366  509  574  497  288  29  -190  -321  -353  -298  -197  -118  -151  -342  -633  -924  -1166  -1230  -852  -78  620  860  530  -183  -788  -909  -567  -48  302  422  590  1005  1566  2044  2300  2358  2316  2195  1947  1580  1191  873  637  446  291  207  218  304  414  502  558  573  464  141  -305  -628  -651  -388  -9  270  368  353  310  277  265  277  315  376  431  443  401  336  304  318  347  364  373  382  392  401  420  467  531  580  594  587  584  631  795  1101  1444  1658  1660  1481  1233  1055  1003  1057  1180  1322  1424  1454  1384  1177  844  504  312  275  251  157  39  -39  -80  -116  -167  -220  -244  -230  -203  -189  -182  -161  -115  -55  -4  13  -30  -166  -384  -610  -746  -745  -620  -435  -269  -173  -153  -188  -232  -253  -256  -260  -266  -264  -251  -225  -185  -140  -111  -119  -194  -309  -383  -372  -303  -237  -209  -202  -193  -186  -191  -216  -258  -306  -337  -334  -319  -346  -446  -569  -635  -595  -446  -250  -106  -55  -54  -55  -55  -97  -222  -393  -518  -560  -560  -558  -550  -500  -377  -205  -48  50  77  44  -8  -47  -64  -78  -99  -117  -121  -142  -229  -378  -523  -611  -632  -600  -524  -431  -360  -322  -296  -271  -257  -255  -270  -333  -436  -518  -547  -543  -533  -515  -444  -281  -43  249  654  1228  1895  2449  2682  2567  2236  1841  1503  1247  966  557  40  -407  -526  -290  16  157  113  -49  -251  -390  -388  -238  -23  126  125  -26  -242  -394  -411  -310  -166  -67  -58  -131  -237  -309  -296  -189  -39  71  108  86  26  -42  -74  -39  43  123  164  167  151  133  116  107  124  199  356  587  832  1022  1143  1228  1309  1371  1375  1293  1120  899  692  511  349  220  101  -64  -280  -499  -675  -777  -803  -770  -692  -614  -570  -535  -495  -470  -488  -567  -697  -843  -985  -1077  -1035  -839  -599  -440  -394  -414  -450  -464  -429  -342  -223  -113  -51  -57  -128  -224  -291  -310  -300  -287  -281  -282  -276  -250  -199  -134  -67  -17  9  19  21  12  -23  -93  -172  -223  -236  -227  -213  -203  -213  -257  -337  -436  -533  -584  -532  -352  -111  71  152  175  173  152  124  109  110  113  85  -11  -164  -317  -425  -465  -433  -356  -276  -192  -42  215  506  690  691  531  314  161  115  129  151  146  88  -31  -195  -354  -439  -411  -297  -185  -169  -266  -425  -576  -661  -638  -501  -310  -169  -140  -226  -396  -581  -712  -767  -762  -701  -578  -288  376  1382  2300  2785  2824  2541  2138  1873  1850  1878  1652  1092  403  -143  -378  -269  11  229  374  522  613  571  394  156  -34  -127  -149  -137  -111  -82  -64  -59  -66  -74  -68  -19  88  250  418  536  591  603  579  495  330  123  -18  -6  166  406  581  646  652  645  635  633  673  792  974  1149  1249  1236  1140  1075  1121  1226  1316  1391  1470  1532  1534  1454  1284  1035  774  569  440  359  269  130  -39  -194  -296  -327  -285  -177  -43  48  56  -19  -171  -367  -554  -688  -756  -773  -767  -749  -717  -679  -647  -617  -585  -552  -520  -484  -439  -381  -308  -234  -202  -245  -331  -398  -421  -420  -440  -511  -622  -726  -786  -783  -704  -555  -388  -276  -232  -206  -172  -183  -288  -441  -552  -595  -595  -541  -402  -212  -74  -61  -175  -362  -546  -677  -740  -733  -661  -547  -431  -344  -295  -274  -270  -275  -277  -265  -230  -160  -75  -67  -239  -533  -765  -846  -843  -832  -826  -790  -677  -478  -251  -87  -31  -61  -146  -280  -439  -560  -595  -513  -306  -56  94  85  -15  -104  -135  -123  -108  -120  -166  -232  -302  -363  -406  -426  -426  -424  -408  -368  -342  -343  -331  -296  -272  -279  -315  -364  -404  -437  -485  -550  -594  -573  -467  -320  -198  -99  45  312  773  1408  2020  2389  2504  2504  2455  2305  1979  1465  864  341  2  -146  -137  -7  184  352  412  293  0  -332  -479  -266  221  555  339  -331  -1018  -1326  -1066  -386  234  473  467  412  311  200  149  149  147  115  61  17  4  28  95  210  349  457  506  511  504  501  492  459  404  380  477  752  1107  1359  1439  1418  1373  1335  1315  1313  1330  1358  1354  1227  914  512  212  98  110  172  243  292  264  93  -210  -518  -697  -716  -598  -387  -170  -40  -13  -49  -120  -218  -342  -494  -680  -846  -896  -821  -697  -545  -311  0  274  405  353  130  -162  -374  -447  -427  -348  -203  -18  135  195  129  -55  -273  -409  -422  -370  -326  -308  -289  -207  -16  230  419  505  483  292  -118  -636  -1032  -1165  -991  -527  39  422  501  357  134  -74  -262  -440  -557  -535  -354  -129  -80  -274  -531  -695  -774  -816  -812  -695  -424  -92  131  172  80  -49  -138  -159  -138  -119  -156  -287  -472  -611  -659  -634  -559  -464  -382  -315  -233  -99  103  363  609  708  563  221  -138  -361  -428  -416  -394  -392  -411  -446  -493  -553  -620  -674  -704  -714  -712  -705  -703  -703  -686  -650  -614  -593  -594  -614  -606  -541  -475  -406  -193  257  933  1793  2598  2972  2798  2238  1470  701  169  -20  25  131  216  238  198  140  44  -134  -354  -497  -468  -248  59  279  309  170  -41  -211  -282  -278  -238  -183  -122  -59  4  72  149  224  274  260  158  9  -96  -113  -57  37  133  185  173  123  68  33  67  248  586  935  1116  1080  920  759  684  711  814  977  1162  1286  1301  1247  1191  1186  1233  1273  1271  1234  1120  856  473  119  -87  -162  -187  -207  -232  -288  -395  -523  -609  -635  -638  -659  -706  -755  -776  -719  -549  -315  -126  -17  44  66  10  -145  -366  -584  -768  -918  -996  -950  -785  -571  -389  -274  -211  -174  -140  -91  -31  0  -35  -150  -313  -462  -545  -550  -503  -453  -441  -468  -501  -518  -523  -519  -488  -422  -341  -285  -272  -282  -291  -287  -274  -269  -280  -295  -303  -302  -297  -302  -342  -422  -482  -463  -380  -296  -264  -307  -389  -431  -363  -218  -156  -249  -393  -481  -543  -706  -994  -1171  -981  -513  -101  16  -162  -473  -649  -456  99  730  1021  744  110  -473  -721  -516  -33  300  217  -123  -408  -524  -555  -557  -497  -354  -177  -36  23  -17  -153  -349  -528  -623  -645  -661  -710  -762  -769  -756  -791  -887  -1007  -1083  -1048  -891  -648  -356  -58  206  445  686  958  1256  1510  1658  1712  1722  1694  1591  1413  1221  1065  910  680  352  10  -216  -278  -229  -165  -171  -289  -482  -665  -757  -710  -514  -252  -61  17  49  72  61  -2  -84  -123  -96  -47  -23  -30  -50  -64  -69  -69  -72  -81  -84  -47  46  174  279  325  339  381  486  633  770  851  893  947  1034  1147  1276  1377  1401  1368  1337  1327  1326  1324  1320  1306  1261  1143  923  662  473  384  342  307  285  264  201  65  -113  -261  -333  -337  -307  -264  -228  -207  -198  -195  -214  -277  -371  -440  -438  -358  -236  -121  -33  48  141  233  300  303  209  16  -208  -360  -403  -380  -343  -322  -331  -377  -442  -487  -469  -371  -234  -136  -125  -189  -283  -348  -352  -299  -220  -159  -136  -141  -155  -154  -109  -7  120  218  252  181  -33  -333  -574  -658  -562  -343  -164  -143  -217  -282  -305  -305  -305  -310  -311  -304  -288  -262  -230  -200  -169  -127  -78  -43  -42  -80  -144  -216  -300  -414  -541  -633  -669  -677  -686  -705  -720  -688  -554  -312  -60  84  82  -43  -216  -334  -317  -150  88  262  274  104  -181  -451  -600  -606  -500  -349  -226  -159  -132  -123  -129  -169  -240  -301  -305  -235  -119  -22  7  -38  -130  -235  -338  -438  -523  -570  -566  -528  -495  -501  -537  -578  -614  -653  -689  -712  -693  -608  -482  -383  -343  -347  -394  -504  -657  -795  -875  -831  -531  91  895  1600  2009  2159  2207  2260  2376  2518  2509  2255  1806  1157  346  -402  -895  -1058  -812  -283  109  152  58  38  74  98  86  40  -41  -143  -232  -280  -293  -282  -250  -197  -122  -26  71  160  226  231  172  85  -10  -86  -121  -134  -126  -62  84  300  534  725  829  831  757  656  586  578  624  697  756  779  771  753  767  869  1065  1277  1408  1447  1433  1371  1244  1078  954  892  834  719  527  296  114  33  23  33  31  6  -63  -186  -323  -416  -444  -417  -348  -262  -202  -180  -179  -184  -204  -252  -310  -345  -363  -415  -539  -682  -744  -696  -590  -482  -402  -363  -346  -319  -278  -234  -178  -91  16  92  97  26  -85  -182  -242  -288  -312  -287  -212  -116  -35  1  -9  -43  -68  -76  -81  -98  -138  -228  -385  -564  -699  -768  -767  -668  -446  -167  41  115  52  -146  -413  -610  -665  -606  -491  -383  -294  -190  -80  -7  25  32  2  -94  -248  -390  -458  -456  -429  -409  -397  -390  -403  -453  -525  -582  -599  -561  -463  -331  -214  -119  -41  -13  -59  -142  -192  -178  -132  -102  -103  -124  -170  -265  -420  -597  -711  -670  -440  -112  136  221  180  78  -28  -93  -112  -106  -94  -80  -71  -92  -184  -366  -581  -727  -722  -534  -213  90  253  272  218  148  99  81  81  86  93  115  176  272  374  445  462  423  315  118  -129  -344  -483  -550  -538  -439  -272  -77  94  210  246  142  -159  -565  -862  -961  -935  -868  -800  -749  -719  -712  -729  -707  -499  -42  468  834  1132  1430  1662  1843  2028  2207  2380  2518  2463  2070  1432  774  211  -178  -291  -157  12  21  -82  -114  -53  -15  -55  -133  -192  -210  -205  -206  -228  -261  -274  -235  -150  -69  -31  -23  -11  15  45  50  20  -22  -58  -87  -96  -33  155  417  608  634  511  327  180  127  187  370  612  799  894  940  977  1022  1077  1131  1183  1234  1242  1152  1079  1206  1431  1445  1183  846  635  674  986  1346  1400  984  218  -589  -1075  -1037  -576  -32  210  17  -394  -713  -806  -692  -420  -96  140  236  199  30  -227  -467  -610  -653  -644  -626  -618  -625  -633  -623  -591  -536  -453  -369  -308  -257  -207  -168  -145  -139  -159  -220  -306  -375  -404  -406  -389  -351  -301  -262  -247  -255  -276  -301  -327  -353  -376  -393  -404  -409  -409  -394  -350  -282  -222  -200  -227  -297  -378  -442  -461  -403  -290  -172  -87  -96  -204  -332  -417  -420  -348  -275  -267  -337  -446  -537  -570  -506  -317  -61  136  229  252  223  126  -33  -220  -400  -530  -568  -537  -484  -424  -362  -296  -218  -144  -94  -63  -40  -39  -100  -221  -323  -317  -237  -190  -204  -231  -238  -237  -256  -313  -381  -390  -302  -160  -49  -14  -34  -58  -49  8  90  150  170  166  159  156  162  181  212  251  291  315  292  188  4  -187  -292  -288  -232  -187  -173  -176  -173  -150  -94  2  132  262  339  293  85  -217  -462  -573  -592  -586  -581  -572  -559  -546  -534  -505  -429  -257  58  488  907  1219  1421  1545  1620  1659  1653  1553  1306  946  591  340  220  188  196  251  278  133  -101  -186  -61  130  200  16  -351  -665  -696  -455  -250  -277  -393  -416  -324  -184  -43  86  192  259  279  258  224  186  125  43  -28  -65  -78  -76  -29  88  237  371  497  612  684  703  690  696  774  916  1075  1212  1311  1363  1360  1290  1166  1037  966  994  1131  1320  1468  1528  1497  1336  1000  526  72  -194  -227  -68  205  480  632  563  220  -294  -735  -955  -1012  -1023  -1015  -906  -613  -218  69  149  65  -101  -275  -400  -480  -545  -592  -603  -587  -549  -454  -290  -105  35  81  -11  -251  -543  -739  -775  -684  -526  -367  -266  -265  -335  -398  -403  -364  -334  -340  -363  -393  -447  -510  -541  -527  -478  -399  -302  -226  -229  -303  -344  -270  -147  -76  -68  -85  -135  -255  -424  -561  -629  -661  -683  -672  -590  -438  -272  -168  -164  -243  -351  -426  -441  -412  -370  -341  -342  -378  -436  -496  -553  -601  -614  -539  -330  -9  284  405  299  31  -264  -471  -567  -586  -550  -463  -357  -277  -229  -197  -180  -185  -204  -218  -212  -197  -180  -146  -73  40  151  189  133  28  -95  -251  -422  -542  -581  -578  -566  -555  -545  -539  -530  -502  -453  -401  -375  -383  -408  -443  -502  -576  -620  -611  -569  -517  -446  -345  -225  -93  69  303  642  1072  1525  1882  2063  2064  1902  1625  1312  1004  694  421  257  216  250  281  216  15  -261  -503  -625  -573  -310  97  415  418  77  -408  -737  -733  -430  19  418  587  515  335  169  82  72  86  53  -79  -278  -418  -349  0  502  901  1075  1093  1040  943  829  747  729  770  849  937  1011  1066  1109  1141  1154  1150  1141  1161  1245  1379  1503  1572  1598  1586  1467  1172  782  489  381  384  380  304  170  49  -14  -28  -23  -16  -10  -2  1  -12  -62  -142  -227  -301  -360  -413  -466  -493  -493  -490  -451  -332  -156  12  111  121  69  -2  -53  -70  -57  -18  37  88  115  100  18  -145  -357  -541  -630  -575  -360  -62  178  297  312  228  36  -203  -380  -451  -447  -408  -368  -347  -338  -330  -318  -301  -290  -293  -303  -310  -322  -357  -417  -485  -541  -570  -548  -470  -373  -316  -313  -337  -366  -389  -401  -409  -424  -446  -453  -428  -389  -366  -362  -366  -361  -333  -266  -161  -68  -56  -141  -284  -445  -582  -643  -606  -482  -297  -94  58  108  33  -152  -357  -469  -456  -361  -226  -87  7  36  -2  -112  -255  -361  -398  -385  -334  -254  -172  -124  -128  -174  -245  -325  -378  -335  -196  -48  40  66  60  47  36  27  20  13  4  -1  -4  -5  -5  0  25  70  99  58  -91  -343  -615  -788  -824  -767  -676  -605  -578  -590  -621  -663  -715  -755  -733  -632  -487  -364  -314  -332  -356  -346  -314  -292  -283  -266  -223  -136  28  329  833  1496  2084  2397  2474  2457  2418  2387  2312  2001  1352  484  -414  -1093  -1208  -694  4  406  420  219  12  -101  -143  -131  -59  38  101  97  32  -63  -156  -229  -271  -267  -240  -225  -222  -199  -107  70  281  440  514  523  484  409  324  269  254  258  266  270  265  247  220  209  255  400  650  928  1107  1147  1113  1081  1069  1059  1030  992  976  996  1024  1025  1003  990  999  976  812  446  -19  -398  -597  -651  -601  -453  -265  -148  -156  -234  -302  -334  -345  -341  -305  -228  -150  -145  -244  -415  -589  -695  -679  -536  -333  -176  -111  -101  -108  -130  -179  -237  -252  -211  -178  -212  -289  -350  -366  -345  -314  -282  -237  -188  -173  -218  -290  -338  -348  -336  -312  -274  -229  -188  -144  -97  -94  -181  -310  -399  -426  -422  -416  -406  -364  -299  -256  -270  -314  -340  -319  -271  -228  -201  -195  -244  -389  -591  -734  -735  -592  -392  -245  -179  -147  -114  -101  -139  -216  -280  -308  -324  -339  -307  -157  73  227  193  11  -191  -300  -297  -258  -241  -239  -242  -261  -325  -457  -620  -723  -666  -407  -47  220  317  306  250  161  29  -142  -317  -435  -472  -448  -385  -306  -237  -184  -132  -83  -52  -42  -42  -43  -48  -81  -176  -353  -582  -789  -893  -827  -557  -176  119  238  251  252  267  282  294  313  336  353  347  296  185  47  -57  -124  -220  -381  -538  -577  -464  -306  -274  -450  -764  -995  -877  -403  138  401  195  -350  -844  -999  -861  -602  -369  -286  -306  -260  -166  -113  -43  121  441  976  1621  2115  2329  2350  2282  2120  1831  1427  976  573  282  101  -30  -172  -310  -382  -383  -355  -311  -242  -151  -83  -83  -135  -198  -253  -292  -305  -276  -185  -57  32  15  -126  -330  -482  -501  -370  -132  101  233  261  247  249  292  370  470  577  673  722  680  519  290  124  140  375  739  1046  1185  1191  1153  1131  1174  1319  1523  1676  1710  1617  1421  1177  966  851  824  838  861  882  874  761  486  126  -159  -311  -369  -367  -360  -400  -467  -512  -527  -526  -509  -467  -416  -398  -436  -501  -546  -560  -583  -649  -730  -737  -608  -395  -237  -213  -263  -296  -301  -324  -409  -536  -638  -677  -680  -666  -606  -462  -276  -166  -184  -260  -304  -286  -221  -152  -104  -71  -45  -33  -45  -86  -144  -196  -227  -245  -260  -267  -257  -235  -215  -201  -198  -226  -307  -412  -473  -452  -381  -314  -272  -247  -232  -226  -227  -232  -235  -233  -228  -226  -227  -226  -220  -213  -222  -275  -364  -401  -330  -222  -161  -149  -155  -181  -243  -327  -385  -395  -381  -370  -362  -346  -324  -307  -305  -324  -357  -381  -373  -314  -194  -52  27  -10  -151  -320  -431  -461  -454  -456  -477  -493  -475  -413  -314  -190  -58  56  122  135  126  138  192  273  333  343  308  255  207  164  112  2  -218  -501  -699  -721  -591  -409  -283  -238  -227  -213  -202  -225  -299  -398  -473  -508  -522  -529  -530  -525  -514  -508  -530  -595  -613  -401  87  675  1159  1471  1678  1897  2198  2509  2582  2199  1396  498  -85  -239  -142  31  118  34  -105  -194  -234  -237  -213  -183  -146  -88  -25  8  3  -20  -40  -49  -53  -51  -36  -3  25  36  38  46  55  54  28  -14  -32  1  67  128  171  220  318  479  658  790  833  785  685  594  563  604  682  752  816  899  1004  1099  1155  1194  1281  1435  1595  1686  1673  1554  1353  1112  868  643  455  312  197  60  -115  -280  -358  -324  -213  -55  125  252  227  -7  -414  -825  -1079  -1148  -1110  -1050  -1002  -942  -834  -712  -644  -634  -611  -496  -260  28  219  208  0  -289  -494  -537  -456  -339  -260  -236  -240  -246  -248  -256  -274  -283  -260  -236  -271  -361  -419  -375  -244  -100  -11  2  -59  -198  -396  -587  -663  -545  -258  51  232  223  60  -158  -312  -363  -357  -331  -291  -238  -202  -221  -316  -451  -555  -597  -603  -599  -571  -498  -397  -321  -294  -297  -311  -332  -356  -357  -322  -282  -280  -331  -404  -454  -462  -431  -360  -257  -144  -24  94  175  198  170  94  -13  -109  -167  -213  -222  -110  40  92  167  370  555  602  464  84  -419  -723  -642  -335  -107  -142  -309  -325  -197  -155  -276  -452  -546  -532  -502  -525  -580  -591  -506  -339  -165  -66  -43  -12  90  257  442  651  976  1457  1955  2264  2303  2102  1708  1196  698  369  252  249  234  152  32  -66  -133  -199  -272  -321  -320  -287  -265  -270  -288  -304  -338  -425  -546  -634  -643  -581  -450  -236  28  245  350  365  340  294  240  204  200  218  240  259  281  302  302  268  214  203  278  423  591  733  831  885  891  878  895  951  1034  1121  1181  1209  1233  1287  1369  1424  1403  1305  1118  837  544  332  191  72  -37  -132  -191  -189  -146  -112  -122  -197  -340  -508  -642  -690  -653  -588  -552  -546  -545  -531  -509  -513  -556  -581  -513  -351  -190  -133  -182  -262  -319  -346  -358  -364  -369  -376  -384  -384  -359  -293  -185  -75  -13  -27  -115  -233  -319  -351  -348  -339  -342  -367  -399  -409  -356  -222  -53  56  37  -121  -349  -528  -596  -554  -423  -263  -148  -94  -72  -67  -92  -145  -192  -195  -171  -171  -201  -223  -208  -153  -92  -70  -141  -343  -610  -802  -848  -792  -711  -658  -627  -573  -479  -383  -333  -334  -347  -319  -220  -95  -44  -121  -268  -381  -420  -417  -410  -410  -414  -408  -388  -364  -346  -327  -281  -202  -114  -58  -62  -104  -133  -123  -97  -73  -24  93  263  407  466  416  239  -24  -268  -407  -450  -449  -439  -429  -430  -455  -516  -624  -752  -846  -868  -813  -683  -503  -325  -202  -162  -196  -277  -372  -450  -488  -488  -465  -450  -452  -375  -17  702  1569  2213  2451  2456  2513  2672  2670  2212  1318  367  -204  -247  38  294  254  -20  -246  -286  -220  -154  -122  -125  -141  -136  -95  -41  -7  3  -5  -65  -217  -419  -574  -641  -652  -601  -436  -150  166  390  453  385  301  289  326  355  378  439  552  657  666  563  413  282  216  263  452  715  914  986  979  952  942  990  1122  1298  1428  1471  1436  1334  1182  1032  921  839  771  727  700  657  567  416  206  -31  -246  -400  -485  -518  -520  -515  -517  -530  -537  -503  -425  -352  -332  -373  -431  -445  -406  -354  -324  -314  -323  -385  -544  -744  -832  -709  -458  -246  -150  -144  -193  -295  -418  -503  -520  -483  -428  -384  -370  -401  -490  -606  -673  -641  -527  -387  -272  -204  -183  -211  -298  -419  -503  -472  -297  -45  144  183  51  -218  -517  -713  -762  -695  -542  -347  -172  -55  -4  -29  -137  -297  -442  -527  -547  -515  -431  -289  -123  -2  34  -1  -97  -218  -305  -336  -335  -338  -358  -378  -366  -325  -275  -224  -171  -137  -146  -198  -288  -412  -537  -621  -645  -610  -518  -374  -215  -114  -95  -106  -90  -36  44  149  260  332  355  352  344  330  306  269  217  148  74  20  -15  -62  -136  -218  -274  -293  -293  -285  -264  -220  -150  -60  26  71  36  -102  -330  -576  -758  -846  -834  -704  -497  -304  -179  -130  -140  -178  -218  -252  -272  -243  -93  253  796  1403  1866  2097  2171  2192  2190  2114  1895  1535  1129  786  528  257  -102  -457  -609  -453  -69  306  400  145  -247  -522  -548  -354  -124  -33  -85  -172  -223  -224  -190  -142  -76  4  49  21  -33  -36  34  123  177  233  317  344  235  56  -54  -44  50  190  358  509  593  612  601  584  576  612  724  890  1051  1178  1247  1220  1128  1060  1068  1135  1205  1225  1190  1107  970  802  651  508  336  156  18  -71  -160  -293  -464  -626  -740  -792  -771  -666  -498  -345  -279  -311  -402  -510  -604  -662  -681  -665  -615  -540  -474  -449  -474  -523  -549  -504  -369  -196  -83  -124  -356  -687  -938  -968  -727  -268  205  493  558  465  225  -172  -626  -927  -938  -682  -323  -56  51  49  -26  -167  -325  -416  -405  -339  -284  -264  -268  -272  -266  -248  -224  -204  -183  -146  -105  -85  -102  -161  -239  -301  -330  -338  -340  -339  -328  -301  -283  -330  -456  -579  -623  -609  -587  -573  -551  -497  -400  -281  -178  -121  -108  -122  -141  -155  -181  -247  -354  -468  -558  -601  -576  -479  -353  -268  -253  -275  -272  -207  -103  2  116  237  314  292  178  65  42  65  29  -78  -227  -404  -579  -690  -687  -586  -449  -331  -281  -325  -427  -547  -664  -740  -745  -689  -583  -456  -362  -331  -347  -372  -374  -338  -277  -212  -184  -270  -443  -433  15  834  1723  2350  2520  2354  2170  2113  2042  1751  1173  439  -153  -402  -392  -315  -273  -292  -306  -207  -30  99  146  157  162  150  99  27  -27  -47  -45  -33  -13  9  26  40  61  91  117  133  142  148  151  151  143  123  104  117  171  233  290  377  512  671  818  925  984  1005  1005  999  988  976  989  1076  1263  1480  1598  1565  1453  1362  1325  1318  1313  1283  1170  931  620  348  183  112  83  44  -35  -143  -205  -176  -104  -51  -29  -31  -86  -227  -417  -559  -603  -567  -483  -381  -302  -269  -270  -279  -262  -198  -100  -20  -2  -80  -261  -484  -640  -694  -693  -679  -640  -552  -438  -347  -277  -181  -65  22  53  24  -67  -197  -304  -350  -346  -315  -276  -249  -240  -258  -314  -415  -529  -584  -539  -446  -366  -299  -232  -181  -156  -142  -139  -185  -328  -542  -727  -817  -837  -830  -783  -663  -494  -361  -306  -297  -297  -295  -292  -292  -292  -291  -291  -298  -336  -433  -571  -663  -590  -280  156  475  507  248  -164  -509  -634  -557  -406  -320  -366  -508  -655  -785  -883  -779  -358  133  418  491  467  472  541  522  266  -176  -589  -736  -592  -383  -309  -376  -482  -533  -508  -460  -430  -435  -495  -623  -776  -883  -916  -901  -870  -806  -686  -538  -424  -370  -362  -385  -403  -314  28  630  1242  1600  1692  1668  1643  1639  1617  1518  1312  1044  802  650  575  512  406  236  16  -155  -162  -22  114  137  43  -104  -256  -387  -446  -396  -285  -197  -156  -123  -73  -25  -3  -13  -33  -45  -49  -49  -40  -12  34  110  240  408  547  620  641  640  631  609  571  530  501  500  544  640  754  842  912  995  1098  1195  1257  1290  1328  1371  1380  1325  1235  1166  1120  1063  986  902  773  534  224  -18  -116  -111  -81  -83  -155  -312  -520  -684  -702  -571  -376  -202  -109  -120  -203  -296  -346  -349  -329  -304  -284  -280  -298  -339  -407  -514  -643  -724  -717  -663  -619  -586  -520  -401  -273  -198  -189  -219  -260  -287  -292  -278  -252  -223  -203  -192  -188  -191  -219  -285  -372  -438  -465  -469  -469  -466  -441  -365  -221  -54  63  111  113  67  -54  -228  -379  -450  -455  -428  -397  -391  -423  -471  -510  -529  -512  -440  -313  -169  -62  -14  -5  -10  -16  -15  -1  26  57  82  87  49  -47  -172  -262  -291  -278  -245  -208  -184  -176  -174  -159  -131  -101  -86  -99  -143  -198  -249  -290  -298  -264  -220  -193  -183  -199  -268  -398  -540  -606  -533  -316  -34  192  298  308  280  253  239  242  255  265  229  107  -81  -276  -452  -618  -754  -804  -738  -589  -395  -156  91  250  238  59  -190  -387  -493  -548  -580  -595  -592  -567  -521  -445  -356  -308  -331  -362  -252  36  410  892  1517  2109  2522  2770  2839  2720  2399  1821  1065  352  -138  -325  -235  -45  0  -175  -373  -374  -149  163  391  452  348  107  -176  -361  -374  -239  -51  78  92  3  -125  -213  -208  -107  35  135  138  46  -84  -182  -209  -161  -46  96  202  236  218  199  219  279  364  453  527  589  664  762  849  900  955  1066  1213  1352  1482  1604  1690  1719  1664  1507  1301  1156  1118  1131  1113  982  659  153  -352  -637  -600  -272  181  506  535  247  -238  -673  -855  -775  -575  -404  -315  -290  -306  -353  -425  -520  -649  -800  -919  -979  -987  -928  -768  -543  -342  -195  -88  -28  -34  -95  -172  -229  -267  -305  -337  -328  -288  -305  -432  -626  -810  -922  -924  -799  -565  -306  -110  -16  -26  -117  -241  -349  -410  -421  -399  -366  -339  -328  -335  -382  -496  -636  -705  -656  -551  -480  -458  -447  -429  -420  -437  -466  -473  -450  -434  -458  -492  -482  -421  -369  -402  -509  -611  -670  -696  -692  -652  -575  -476  -382  -314  -278  -272  -291  -320  -338  -338  -325  -302  -280  -300  -420  -635  -853  -979  -990  -891  -678  -373  -65  117  88  -161  -523  -808  -929  -927  -862  -745  -582  -413  -321  -358  -489  -652  -798  -889  -916  -902  -875  -842  -785  -693  -595  -525  -432  -223  67  283  311  153  -100  -320  -443  -512  -599  -711  -792  -797  -728  -621  -515  -449  -467  -561  -669  -743  -784  -816  -846  -871  -889  -908  -927  -944  -959  -976  -987  -948  -798  -551  -306  -130  71  496  1189  1925  2421  2542  2332  1954  1592  1328  1078  706  242  -172  -445  -510  -369  -206  -227  -396  -471  -353  -191  -117  -121  -134  -99  15  175  304  351  281  67  -226  -454  -544  -528  -445  -310  -151  5  134  197  180  117  56  31  55  117  196  282  394  522  616  661  693  749  848  980  1131  1289  1445  1585  1690  1735  1719  1682  1660  1654  1652  1657  1674  1696  1704  1691  1659  1605  1526  1443  1385  1356  1326  1262  1126  916]
