reading_id,reading_time,wire_id,result_classification,heart_rate,heart_rate_alert,firmware_version,device_app_version,hardware_version,waveform_samples
e3ea7780-927f-11ee-8080-808080808080,Mon Dec 04 08:34:07 UTC 2023,e150772d2e39,UNREADABLE,0,NONE,20001.188.58,2.13.0,Charge 5,[0  16  184  552  1055  1542  1874  2043  2140  2234  2362  2534  2683  2687  2494  2170  1873  1763  1866  2054  2176  2154  1960  1578  1105  731  529  430  384  375  381  387  381  359  327  271  147  -59  -285  -458  -579  -734  -1013  -1349  -1501  -1318  -925  -590  -460  -489  -570  -667  -845  -1211  -1627  -1560  -864  -210  18  234  859  1877  3029  3939  4054  3171  1770  289  -1006  -1765  -1943  -1941  -2210  -2848  -3618  -4302  -4804  -5092  -5196  -5184  -5131  -5085  -5068  -5100  -5210  -5376  -5525  -5607  -5641  -5662  -5682  -5709  -5747  -5825  -6048  -6496  -7010  -7338  -7422  -7393  -7397  -7510  -7703  -7874  -7923  -7766  -7387  -6919  -6563  -6382  -6291  -6172  -5966  -5729  -5576  -5550  -5581  -5585  -5467  -5082  -4375  -3559  -2958  -2664  -2522  -2391  -2261  -2165  -2108  -2064  -2018  -1982  -2021  -2213  -2509  -2721  -2664  -2297  -1791  -1422  -1295  -1340  -1497  -1739  -1988  -2152  -2183  -2021  -1620  -1084  -618  -313  -98  130  396  620  737  759  710  589  428  309  318  491  790  1106  1353  1526  1687  1902  2145  2307  2287  2048  1664  1298  1066  982  1058  1331  1751  2162  2467  2668  2772  2795  2787  2797  2861  2965  2993  2813  2411  1895  1529  1666  2375  3322  4017  4099  3530  2608  1854  1669  1924  2214  2362  2317  2053  1702  1426  1265  1191  1168  1165  1184  1254  1373  1543  1793  2090  2326  2473  2571  2579  2368  1851  1108  399  12  71  496  1041  1413  1482  1336  1157  1063  1037  1029  1030  1045  1069  1099  1147  1206  1231  1235  1288  1374  1428  1438  1430  1423  1424  1446  1494  1557  1611  1648  1667  1659  1599  1491  1383  1294  1191  1071  955  824  634  380  149  14  -66  -149  -222  -281  -305  -227  -47  168  253  63  -179  -187  -34  94  35  -350  -845  -953  -492  211  706  695  267  20  351  922  1305  1477  1562  1568  1426  1118  740  428  247  160  93  -10  -156  -299  -421  -530  -626  -706  -765  -801  -807  -748  -612  -467  -382  -361  -371  -436  -632  -913  -1076  -999  -774  -581  -501  -495  -501  -503  -503  -496  -467  -421  -420  -519  -683  -873  -1106  -1323  -1368  -1163  -827  -551  -408  -351  -337  -348  -363  -362  -312  -187  -23  87  93  43  39  149  322  467  565  614  518  179  -300  -664  -793  -780  -762  -807  -916  -1039  -1118  -1137  -1136  -1150  -1174  -1178  -1137  -1042  -929  -851  -818  -812  -814  -819  -820  -814  -804  -799  -811  -849  -902  -941  -954  -954  -964  -1004  -1077  -1165  -1236  -1244  -1136  -896  -604  -393  -325  -373  -508  -676  -790  -818  -847  -956  -977  -679  -145  291  324  -66  -471  -417  192  1021  1459  1124  304  -406  -729  -663  -232  373  883  1233  1372  1231  988  867  897  1054  1355  1754  2095  2230  2106  1753  1305  956  795  762  777  842  1000  1213  1355  1349  1254  1174  1147  1149  1147  1129  1109  1103  1120  1167  1248  1369  1505  1610  1654  1609  1420  1096  779  643  749  1016  1298  1486  1544  1496  1397  1275  1106  886  700  611  558  471  387  373  440  563  740  979  1222  1371  1393  1323  1220  1142  1149  1298  1590  1907  2121  2214  2232  2175  1994  1687  1363  1136  998  861  630  249  -196  -529  -689  -735  -733  -731  -769  -843  -884  -820  -669  -506  -396  -379  -462  -590  -685  -718  -721  -720  -715  -695  -667  -660  -676  -662  -587  -536  -594  -711  -779  -760  -693  -628  -592  -570  -528  -481  -517  -668  -817  -795  -534  -144  172  319  352  346  338  328  304  256  190  115  22  -79  -154  -189  -199  -187  -154  -108  -75  -74  -121  -228  -367  -486  -568  -624  -626  -517  -294  -56  94  146  135  94  52  43  115  297  528  686  707  609  457  323  249  238  267  315  375  428  444  396  279  148  54  -3  -31  -34  -26  -17  -16  -28  -45  -62  -87  -124  -162  -195  -233  -270  -288  -269  -207  -125  -65  -42  -38  -41  -62  -121  -219  -360  -579  -851  -1055  -1095  -994  -877  -851  -891  -904  -877  -849  -849  -853  -830  -791  -772  -778  -787  -760  -664  -513  -375  -301  -311  -404  -546  -700  -868  -1038  -1157  -1200  -1181  -1123  -1054  -995  -944  -914  -914  -923  -918  -887  -816  -689  -494  -245  2  164  212  179  106  35  -4  -26  -63  -113  -104  23  199  288  241  124  28  -11  -11  22  103  210  290  296  202  9  -253  -509  -669  -702  -646  -573  -578  -692  -827  -906  -936  -949  -954  -933  -870  -789  -742  -729  -665  -470  -152  213  452  430  418  855  1731  2672  3266  3141  2309  1366  906  985  1305  1585  1612  1285  831  580  490  332  82  -154  -302  -329  -236  -45  171  321  377  377  336  222  57  -40  32  250  484  625  659  642  626  637  683  746  791  805  808  822  847  864  846  789  732  732  795  875  942  1005  1096  1235  1389  1502  1556  1565  1552  1536  1531  1549  1620  1778  2002  2204  2316  2346  2314  2196  1993  1788  1659  1554  1359  1091  880  757  654  550  449  320  173  44  -69  -172  -242  -273  -278  -258  -215  -189  -228  -307  -342  -312  -266  -243  -236  -229  -222  -223  -229  -230  -223  -219  -253  -357  -519  -666  -729  -697  -599  -467  -318  -179  -87  -52  -85  -206  -390  -567  -676  -693  -640  -535  -370  -211  -174  -239  -301  -322  -324  -317  -286  -214  -127  -86  -123  -200  -253  -257  -210  -110  15  111  136  81  -46  -211  -356  -447  -476  -460  -447  -463  -479  -454  -395  -332  -271  -208  -158  -140  -136  -110  -57  -21  -48  -127  -215  -298  -377  -454  -522  -567  -566  -496  -372  -270  -238  -242  -204  -85  44  66  -33  -168  -263  -303  -319  -355  -426  -496  -526  -521  -514  -517  -507  -444  -317  -172  -78  -51  -58  -58  -31  17  69  119  171  206  157  -33  -305  -510  -580  -563  -523  -494  -479  -476  -483  -506  -545  -594  -653  -720  -793  -875  -975  -1077  -1147  -1179  -1192  -1170  -1057  -842  -621  -497  -493  -574  -704  -892  -1154  -1343  -1206  -660  113  779  1104  1222  1456  1926  2381  2435  1983  1251  514  -49  -390  -605  -817  -949  -861  -686  -637  -681  -686  -635  -551  -449  -400  -468  -609  -737  -815  -848  -854  -853  -858  -872  -873  -801  -615  -404  -301  -253  -130  27  96  37  -102  -213  -230  -195  -155  -115  -96  -106  -131  -129  -15  283  682  966  1001  813  538  338  305  458  755  1064  1247  1292  1275  1259  1257  1258  1237  1173  1063  890  617  288  43  -50  -53  -47  -72  -112  -112  -52  0  -32  -155  -305  -403  -430  -437  -484  -597  -759  -911  -977  -950  -868  -746  -590  -423  -238  -37  114  168  120  -15  -188  -340  -447  -483  -435  -356  -307  -287  -287  -302  -314  -306  -274  -206  -84  55  102  0  -168  -255  -243  -277  -424  -532  -438  -206  -44  -25  -58  -52  -16  -8  -78  -227  -393  -507  -549  -539  -488  -415  -369  -384  -407  -405  -458  -605  -756  -837  -849  -779  -597  -353  -168  -102  -139  -267  -456  -628  -675  -521  -234  2  73  -3  -134  -234  -267  -222  -90  86  224  274  226  78  -113  -250  -290  -271  -239  -219  -225  -269  -327  -297  -65  333  709  911  939  838  621  336  91  -36  -53  -8  60  143  213  228  159  42  -14  28  39  -73  -243  -368  -423  -434  -428  -397  -317  -206  -112  -59  -35  -13  24  53  48  36  47  84  121  131  187  439  931  1539  2053  2313  2366  2404  2463  2371  2018  1443  729  57  -290  -198  138  430  550  483  254  11  -99  -77  11  112  177  201  205  181  105  0  -67  -35  112  310  457  528  567  599  600  551  487  454  457  482  496  436  269  117  132  262  363  400  409  442  546  717  892  1008  1046  1032  1018  1051  1152  1297  1422  1460  1384  1259  1176  1133  1093  1044  949  752  505  330  271  268  253  167  -31  -292  -482  -537  -512  -484  -494  -544  -625  -739  -876  -982  -979  -853  -675  -526  -449  -443  -483  -534  -567  -572  -557  -540  -533  -534  -527  -493  -433  -386  -379  -389  -399  -416  -432  -439  -439  -439  -438  -425  -392  -353  -335  -348  -399  -488  -578  -621  -620  -611  -605  -592  -555  -479  -363  -239  -149  -101  -93  -166  -368  -644  -862  -962  -976  -900  -700  -434  -244  -199  -263  -365  -452  -495  -495  -483  -491  -518  -535  -532  -525  -522  -474  -308  -29  245  410  449  407  338  280  250  243  249  259  267  253  190  80  -48  -167  -221  -187  -125  -84  -50  -8  28  44  38  12  -30  -83  -130  -165  -202  -252  -304  -345  -370  -391  -409  -384  -227  134  633  1078  1347  1502  1640  1718  1649  1507  1401  1288  1121  885  524  119  -186  -347  -289  1  308  413  327  187  78  23  12  17  25  30  18  -6  -38  -74  -106  -118  -95  -31  47  103  125  130  125  107  78  46  21  19  69  184  314  374  348  295  254  234  272  433  717  1003  1167  1198  1161  1105  1052  1012  998  1009  1024  1031  1052  1123  1234  1315  1307  1231  1173  1161  1128  1054  959  828  663  491  319  145  -61  -342  -629  -743  -593  -301  -70  24  33  4  -57  -146  -233  -269  -236  -168  -111  -80  -72  -101  -184  -299  -390  -423  -384  -262  -93  42  88  14  -193  -484  -762  -954  -1017  -908  -633  -285  -7  123  130  70  -17  -110  -189  -237  -254  -255  -252  -248  -241  -241  -262  -324  -413  -491  -524  -491  -383  -238  -133  -95  -95  -101  -117  -170  -261  -345  -386  -395  -368  -297  -217  -171  -168  -183  -176  -129  -79  -88  -158  -222  -232  -202  -178  -191  -221  -240  -242  -233  -215  -205  -236  -292  -295  -209  -99  -39  -31  -36  -40  -66  -141  -248  -331  -356  -323  -243  -141  -54  -3  16  15  8  8  28  69  91  40  -70  -167  -206  -204  -191  -186  -208  -267  -343  -399  -426  -448  -477  -500  -487  -419  -315  -233  -198  -198  -220  -287  -431  -626  -781  -844  -832  -761  -628  -453  -234  93  551  1043  1462  1776  2014  2246  2540  2759  2617  2051  1183  210  -498  -715  -555  -236  39  170  168  51  -121  -246  -300  -321  -338  -345  -330  -301  -283  -293  -324  -345  -333  -290  -231  -182  -163  -166  -170  -174  -200  -254  -294  -255  -145  -34  45  110  166  186  160  139  195  345  521  633  658  632  595  567  556  581  664  796  931  1040  1138  1241  1309  1297  1238  1160  1026  829  642  534  509  525  543  528  435  227  -47  -264  -368  -395  -382  -312  -166  4  89  30  -130  -311  -456  -541  -568  -564  -551  -541  -535  -530  -522  -513  -513  -518  -501  -424  -288  -147  -57  -25  -21  -20  -26  -71  -184  -347  -501  -601  -650  -676  -682  -619  -438  -187  1  61  13  -105  -248  -357  -410  -424  -422  -418  -416  -414  -410  -406  -401  -381  -332  -271  -236  -230  -225  -199  -153  -118  -118  -127  -99  -36  29  78  91  64  21  -6  -13  -46  -156  -303  -400  -420  -400  -377  -343  -250  -91  78  189  202  136  92  136  192  161  42  -91  -174  -193  -192  -223  -285  -308  -226  -73  59  104  65  13  9  54  89  33  -160  -421  -614  -705  -767  -800  -659  -271  186  455  408  119  -155  -191  64  571  1123  1345  978  149  -673  -1015  -690  35  638  821  659  385  164  12  -95  -140  -121  -86  -72  -80  -98  -127  -185  -273  -355  -392  -383  -361  -360  -386  -407  -397  -376  -351  -286  -159  -11  129  359  782  1290  1645  1776  1788  1777  1779  1802  1833  1794  1564  1110  585  181  -54  -182  -245  -272  -297  -326  -325  -270  -201  -183  -219  -255  -259  -250  -253  -277  -313  -347  -365  -354  -307  -246  -204  -181  -158  -136  -129  -153  -200  -232  -199  -86  63  145  102  0  -72  -111  -132  -120  -29  162  390  561  660  747  855  955  1011  1024  1015  1012  1057  1170  1281  1273  1134  977  892  875  890  914  927  878  716  467  230  75  -3  -47  -85  -112  -127  -149  -198  -277  -369  -451  -511  -564  -631  -697  -737  -724  -623  -429  -220  -107  -125  -209  -282  -318  -332  -338  -340  -338  -329  -307  -277  -264  -253  -173  -8  158  256  283  261  182  36  -145  -314  -455  -558  -594  -575  -538  -497  -443  -346  -190  -18  87  90  3  -119  -219  -277  -297  -283  -236  -162  -130  -243  -436  -497  -358  -103  207  440  407  89  -348  -631  -563  -265  -27  -19  -244  -539  -702  -682  -542  -367  -232  -174  -171  -182  -178  -151  -110  -66  -21  15  29  -9  -123  -275  -378  -366  -234  -34  150  288  396  474  485  357  50  -337  -626  -741  -743  -705  -647  -580  -526  -491  -465  -445  -419  -354  -236  -100  11  98  190  295  387  451  492  514  488  369  164  -42  -195  -323  -422  -411  -312  -241  -233  -219  -70  213  397  319  -7  -515  -931  -896  -444  0  139  16  -226  -500  -726  -822  -750  -557  -351  -203  -110  -33  41  100  119  104  120  234  477  856  1355  1866  2222  2360  2317  2126  1816  1458  1073  623  147  -219  -390  -416  -394  -373  -349  -300  -210  -85  32  96  73  -39  -190  -298  -332  -326  -314  -309  -314  -332  -350  -317  -160  119  401  558  554  431  267  149  105  108  136  191  258  307  327  333  338  343  354  381  432  519  670  885  1080  1152  1101  1013  952  933  944  952  944  954  1033  1180  1315  1345  1264  1129  941  671  369  128  -34  -143  -212  -258  -307  -361  -408  -440  -451  -434  -394  -354  -340  -362  -396  -428  -479  -571  -690  -806  -906  -980  -998  -919  -748  -544  -363  -229  -149  -118  -119  -132  -150  -184  -251  -336  -397  -417  -413  -407  -409  -419  -430  -439  -461  -520  -607  -668  -637  -482  -261  -91  -25  -26  -55  -118  -237  -412  -599  -733  -775  -712  -558  -382  -263  -215  -192  -159  -129  -132  -172  -242  -343  -463  -560  -614  -635  -612  -527  -424  -401  -475  -563  -602  -594  -553  -483  -401  -337  -302  -285  -264  -202  -86  30  108  151  165  164  180  221  243  217  160  100  37  -52  -180  -320  -423  -465  -466  -462  -479  -512  -519  -469  -386  -314  -273  -252  -232  -207  -184  -182  -229  -322  -414  -470  -492  -499  -512  -530  -501  -334  37  626  1335  1880  1982  1724  1448  1332  1299  1220  983  512  -31  -296  -210  -15  126  162  -26  -338  -442  -297  -145  -86  -75  -74  -74  -76  -82  -92  -99  -86  -43  16  62  84  94  79  11  -90  -138  -64  90  227  283  277  261  262  257  199  93  18  47  190  396  585  698  744  767  801  865  965  1088  1226  1356  1449  1498  1511  1495  1459  1404  1337  1269  1206  1161  1139  1108  1037  902  714  531  381  230  87  3  -16  -21  -53  -124  -206  -271  -312  -324  -302  -271  -255  -253  -228  -139  -8  89  114  91  61  38  18  1  -11  -27  -48  -68  -82  -90  -93  -77  -32  29  75  91  85  70  55  61  114  208  293  318  293  251  197  124  47  -25  -114  -230  -335  -395  -420  -424  -409  -379  -329  -244  -135  -58  -70  -189  -381  -589  -770  -883  -890  -823  -754  -721  -712  -710  -713  -726  -752  -777  -788  -776  -744  -709  -686  -677  -677  -685  -693  -669  -548  -293  -4  167  170  -10  -377  -791  -996  -787  -194  473  740  277  -709  -1547  -1787  -1537  -1138  -876  -859  -940  -937  -875  -862  -924  -1017  -1073  -1047  -963  -913  -960  -1058  -1135  -1176  -1206  -1214  -1109  -805  -396  -118  -72  -119  17  548  1359  2089  2517  2657  2576  2311  1919  1535  1301  1240  1236  1153  945  664  411  267  240  276  322  353  371  384  382  329  216  92  26  74  219  319  261  104  -31  -110  -135  -52  225  656  1043  1238  1244  1117  912  704  552  487  517  603  702  820  984  1154  1260  1283  1268  1271  1328  1436  1549  1600  1570  1509  1462  1421  1376  1345  1352  1396  1445  1466  1471  1484  1474  1392  1226  1033  890  808  714  544  310  82  -79  -178  -257  -339  -415  -488  -569  -639  -660  -587  -410  -222  -147  -209  -339  -465  -561  -646  -715  -748  -756  -762  -778  -812  -861  -908  -925  -884  -777  -639  -529  -474  -458  -488  -597  -765  -902  -946  -897  -788  -689  -665  -711  -774  -799  -771  -756  -815  -912  -977  -999  -1018  -1062  -1103  -1073  -939  -754  -613  -558  -574  -642  -742  -838  -919  -1003  -1087  -1141  -1150  -1134  -1119  -1108  -1080  -1012  -906  -800  -755  -812  -949  -1095  -1186  -1214  -1212  -1199  -1158  -1061  -915  -778  -693  -657  -636  -610  -593  -598  -593  -559  -528  -522  -526  -529  -539  -566  -604  -635  -652  -653  -620  -518  -332  -122  -5  -36  -159  -276  -327  -313  -253  -156  -45  32  56  44  10  -42  -103  -147  -163  -160  -150  -133  -103  -64  -33  -27  -49  -98  -154  -189  -195  -182  -174  -206  -304  -431  -497  -444  -313  -181  -94  -70  -134  -295  -496  -626  -578  -310  97  519  960  1450  1879  2091  2074  1983  2010  2184  2354  2221  1526  447  -477  -821  -493  265  998  1254  939  434  118  19  -3  -23  -46  -69  -100  -139  -172  -188  -169  -93  31  147  198  184  143  110  91  70  37  5  13  94  231  355  413  402  347  269  189  142  171  297  475  615  682  721  784  901  1093  1334  1537  1635  1625  1541  1420  1297  1202  1161  1181  1224  1235  1178  1062  927  804  710  640  562  452  336  259  215  161  93  47  32  3  -86  -216  -322  -381  -416  -448  -483  -500  -470  -375  -238  -126  -111  -177  -244  -275  -302  -365  -449  -508  -504  -437  -342  -275  -268  -314  -379  -429  -457  -474  -469  -426  -357  -307  -337  -424  -466  -427  -332  -192  -54  27  64  85  112  156  186  146  8  -182  -349  -448  -490  -495  -469  -408  -333  -299  -348  -458  -555  -582  -546  -477  -374  -244  -131  -72  -53  -56  -98  -194  -300  -344  -321  -294  -307  -358  -414  -440  -422  -354  -244  -122  -15  54  82  79  57  2  -86  -137  -89  6  61  49  2  -44  -90  -150  -213  -259  -283  -288  -277  -252  -214  -154  -70  -13  -29  -85  -126  -142  -148  -155  -145  -73  94  316  499  584  587  580  560  431  169  -166  -440  -438  -119  183  101  -356  -889  -1227  -1281  -1072  -707  -435  -384  -421  -425  -416  -434  -475  -489  -448  -388  -332  -245  -112  31  155  276  473  839  1332  1779  2040  2079  1947  1738  1526  1323  1082  807  566  363  133  -109  -280  -339  -291  -145  46  185  191  50  -184  -405  -532  -593  -657  -733  -746  -634  -430  -215  -23  138  259  346  399  363  186  -66  -256  -320  -315  -312  -334  -332  -209  57  345  528  599  620  645  702  781  846  862  842  836  872  934  996  1039  1058  1065  1084  1121  1162  1206  1270  1333  1334  1222  1009  791  667  645  674  693  640  473  252  84  -36  -206  -428  -601  -676  -679  -599  -392  -111  111  213  230  194  105  -20  -127  -182  -214  -267  -338  -372  -326  -207  -74  26  89  107  67  -18  -112  -181  -213  -227  -240  -254  -260  -238  -158  -9  162  266  255  154  7  -147  -270  -331  -317  -253  -186  -142  -117  -96  -78  -65  -53  -41  -36  -55  -101  -137  -139  -132  -142  -171  -222  -273  -314  -368  -448  -534  -595  -603  -547  -451  -356  -271  -196  -156  -156  -156  -167  -235  -335  -400  -401  -341  -252  -179  -132  -86  -34  3  9  -19  -69  -116  -145  -160  -157  -136  -110  -74  -8  79  131  103  1  -158  -358  -541  -662  -715  -725  -715  -688  -646  -607  -600  -635  -702  -786  -866  -916  -918  -887  -860  -854  -848  -805  -715  -604  -501  -396  -211  144  601  919  991  982  1054  1183  1330  1457  1389  1067  667  300  19  -82  -72  -103  -190  -279  -356  -433  -511  -571  -594  -585  -563  -540  -506  -455  -377  -258  -119  -24  -20  -113  -278  -440  -519  -480  -352  -218  -141  -84  23  166  254  234  119  -39  -183  -276  -320  -336  -323  -243  -71  137  286  350  383  416  447  467  476  490  519  547  567  621  787  1097  1456  1705  1748  1530  1048  476  66  -100  -116  -98  -119  -202  -310  -373  -359  -301  -248  -215  -206  -263  -443  -708  -916  -929  -719  -411  -174  -68  -52  -74  -92  -96  -122  -200  -307  -378  -382  -315  -167  36  223  330  325  203  26  -108  -167  -190  -203  -190  -126  -25  74  154  201  220  243  274  282  234  146  94  132  209  259  280  294  305  311  315  313  295  252  212  201  190  130  42  -18  -31  -16  6  26  36  38  34  36  66  133  216  291  357  409  418  386  350  337  348  358  322  193  -6  -194  -333  -464  -597  -673  -656  -583  -519  -490  -482  -485  -508  -547  -557  -499  -397  -304  -257  -250  -269  -305  -348  -381  -386  -349  -259  -131  4  159  408  827  1339  1735  1883  1806  1561  1208  842  590  466  331  84  -271  -699  -1050  -1083  -709  -97  417  532  190  -377  -831  -878  -487  -7  197  158  118  128  115  82  63  61  65  63  50  33  30  63  130  198  235  236  220  212  259  403  601  743  771  684  442  22  -302  -95  632  1335  1593  1490  1248  967  877  1142  1517  1679  1521  1075  562  352  640  1159  1465  1450  1272  1019  736  503  330  165  0  -141  -244  -314  -370  -426  -459  -466  -471  -456  -398  -332  -298  -292  -289  -275  -276  -347  -511  -703  -831  -880  -889  -863  -729  -433  -53  244  375  382  329  242  130  4  -136  -294  -442  -520  -503  -446  -401  -355  -288  -218  -174  -156  -149  -136  -108  -63  -11  25  37  21  -25  -87  -135  -157  -161  -137  -68  33  102  54  -156  -451  -662  -696  -581  -415  -290  -230  -207  -185  -108  83  356  567  516  129  -400  -819  -933  -601  -4  443  526  192  -442  -972  -1059  -698  -77  501  790  800  651  383  67  -163  -257  -272  -274  -293  -328  -372  -420  -477  -559  -660  -720  -667  -489  -307  -268  -326  -333  -276  -239  -252  -290  -326  -345  -328  -249  -101  63  189  282  442  778  1252  1670  1893  1937  1849  1634  1336  1046  789  532  300  165  139  159  144  44  -120  -266  -336  -345  -335  -327  -319  -306  -293  -286  -265  -214  -142  -59  2  0  -68  -143  -186  -204  -209  -199  -151  -55  52  122  143  135  110  72  44  82  233  449  616  678  674  651  625  598  581  591  631  680  714  748  808  894  992  1108  1236  1330  1368  1359  1296  1159  943  670  413  260  209  175  100  -14  -129  -200  -221  -216  -208  -202  -198  -208  -282  -465  -693  -798  -687  -471  -359  -435  -589  -676  -695  -716  -736  -715  -664  -624  -613  -625  -638  -627  -579  -486  -366  -272  -236  -265  -358  -481  -570  -590  -556  -498  -438  -385  -347  -335  -356  -408  -470  -508  -512  -485  -449  -423  -419  -438  -480  -551  -642  -686  -599  -385  -158  -76  -192  -383  -511  -567  -596  -605  -587  -537  -477  -436  -430  -453  -450  -342  -137  60  157  155  107  20  -151  -384  -575  -662  -672  -655  -646  -641  -576  -382  -82  183  300  294  255  231  227  246  272  268  187  22  -177  -368  -534  -617  -547  -364  -188  -87  -56  -92  -206  -365  -499  -567  -592  -623  -667  -691  -706  -756  -823  -839  -764  -620  -460  -287  -26  448  1168  1861  2149  2001  1714  1575  1691  1887  1776  1159  295  -333  -467  -191  230  499  454  233  44  -65  -105  -68  10  62  70  60  39  -9  -77  -130  -137  -101  -43  13  56  77  76  56  29  10  6  12  17  4  -40  -107  -156  -139  -28  154  341  476  536  537  521  552  674  857  1006  1051  1020  1020  1135  1328  1490  1574  1587  1532  1424  1321  1266  1262  1286  1314  1297  1168  903  568  280  117  70  81  108  121  100  49  -3  -34  -45  -46  -42  -28  7  64  116  129  105  63  8  -47  -81  -91  -92  -111  -165  -243  -306  -321  -301  -276  -255  -228  -185  -130  -81  -64  -91  -135  -140  -73  35  120  159  162  118  0  -170  -308  -368  -359  -279  -115  81  194  161  33  -93  -166  -197  -226  -270  -340  -462  -608  -681  -608  -415  -188  -7  88  81  -44  -263  -469  -523  -373  -117  93  196  226  208  108  -74  -246  -309  -245  -110  -24  -75  -215  -335  -396  -413  -402  -376  -348  -337  -345  -342  -302  -254  -268  -373  -506  -566  -494  -332  -172  -18  160  284  301  287  247  92  -198  -537  -693  -440  149  720  849  301  -656  -1405  -1559  -1197  -624  -137  91  71  -89  -299  -500  -654  -759  -833  -888  -907  -865  -781  -718  -704  -693  -600  -384  -108  140  379  680  1028  1324  1515  1635  1695  1638  1403  1018  622  375  308  331  363  366  320  221  103  9  -34  -41  -57  -109  -166  -200  -243  -307  -357  -363  -328  -271  -207  -129  -43  20  45  27  -34  -128  -217  -256  -232  -161  -67  25  110  205  308  379  379  310  211  132  89  76  111  231  439  677  865  955  967  966  1021  1165  1354  1486  1509  1450  1371  1311  1240  1095  873  635  447  347  345  421  530  615  627  518  272  -29  -275  -439  -555  -624  -644  -638  -632  -636  -653  -677  -692  -668  -586  -466  -363  -303  -291  -320  -367  -407  -432  -439  -402  -289  -131  -14  -16  -157  -386  -610  -753  -756  -599  -374  -210  -141  -121  -92  -11  103  188  183  61  -152  -392  -593  -711  -749  -729  -643  -481  -295  -163  -111  -115  -168  -279  -418  -520  -562  -570  -566  -528  -425  -285  -182  -155  -182  -225  -266  -309  -355  -390  -411  -427  -423  -376  -300  -244  -228  -224  -188  -107  -16  24  -27  -172  -349  -477  -523  -507  -442  -334  -212  -141  -181  -321  -426  -333  -73  148  211  169  132  147  168  136  60  -6  -38  -48  -59  -102  -193  -298  -365  -403  -469  -572  -658  -679  -624  -503  -356  -256  -255  -366  -546  -710  -790  -761  -622  -416  -223  -102  -71  -94  -68  99  282  225  43  190  816  1577  2029  2005  1700  1436  1381  1442  1383  1057  566  200  149  330  497  467  290  122  30  -13  -56  -126  -210  -271  -286  -251  -180  -101  -38  8  46  60  39  2  -24  -31  -28  -28  -44  -69  -73  -40  2  27  51  113  223  336  401  409  389  380  433  583  785  943  1022  1065  1093  1081  1029  992  1020  1093  1140  1126  1084  1039  1001  1045  1222  1441  1560  1428  972  395  74  180  569  981  1106  718  21  -550  -821  -815  -583  -333  -315  -499  -654  -673  -584  -414  -221  -93  -67  -104  -152  -196  -305  -557  -883  -1111  -1185  -1188  -1195  -1204  -1127  -847  -390  27  193  85  -143  -323  -389  -376  -335  -292  -262  -248  -250  -270  -310  -347  -347  -312  -274  -252  -243  -249  -292  -381  -448  -392  -206  11  173  253  255  181  14  -221  -426  -528  -543  -515  -457  -377  -306  -263  -211  -91  82  228  286  256  161  22  -139  -290  -384  -394  -305  -128  72  214  258  203  58  -132  -283  -328  -263  -149  -60  -29  -68  -182  -329  -435  -468  -458  -437  -417  -412  -453  -571  -735  -857  -853  -686  -396  -126  -9  -47  -148  -244  -276  -33  669  1542  1979  1723  1020  350  149  511  1111  1426  1134  378  -430  -872  -683  10  751  1114  913  282  -381  -756  -832  -761  -637  -499  -373  -261  -148  -38  42  80  84  60  -10  -137  -286  -398  -444  -442  -418  -372  -291  -183  -75  24  136  283  442  548  580  572  562  563  579  599  615  643  703  784  851  885  906  939  992  1066  1173  1310  1439  1521  1550  1514  1377  1140  886  713  647  642  626  552  429  295  172  70  18  19  29  -21  -186  -428  -628  -717  -738  -758  -794  -819  -808  -762  -710  -680  -659  -590  -426  -214  -61  -4  0  -17  -86  -238  -435  -595  -662  -638  -549  -409  -251  -142  -105  -106  -111  -124  -170  -248  -306  -311  -296  -302  -318  -319  -302  -290  -307  -352  -404  -419  -344  -167  45  176  140  -81  -386  -603  -648  -562  -434  -341  -304  -292  -272  -241  -217  -214  -221  -229  -239  -251  -263  -277  -301  -331  -353  -358  -351  -339  -326  -301  -253  -174  -60  94  262  396  471  477  397  241  68  -54  -113  -142  -189  -290  -446  -609  -710  -705  -601  -458  -353  -319  -344  -413  -496  -553  -571  -575  -588  -601  -568  -454  -287  -121  72  348  605  671  565  457  506  803  1292  1756  1983  1891  1541  1107  762  573  500  434  267  30  -116  -88  28  113  134  83  -52  -232  -373  -439  -447  -407  -314  -189  -77  -15  -7  -45  -108  -173  -223  -253  -263  -249  -197  -101  18  122  188  220  218  155  10  -168  -288  -297  -209  -74  73  237  400  513  582  672  828  1017  1179  1309  1418  1479  1492  1512  1567  1602  1550  1412  1247  1104  994  898  783  611  381  152  7  -32  -22  -15  -32  -67  -96  -111  -135  -197  -289  -377  -449  -517  -566  -562  -511  -459  -432  -424  -418  -417  -426  -443  -457  -462  -462  -465  -470  -468  -437  -370  -303  -254  -174  -48  62  114  118  65  -69  -251  -386  -434  -424  -392  -346  -295  -254  -237  -227  -205  -186  -198  -209  -176  -123  -113  -168  -254  -305  -305  -314  -398  -532  -635  -672  -672  -669  -668  -648  -590  -508  -442  -408  -395  -388  -369  -321  -260  -232  -268  -345  -411  -441  -444  -436  -428  -432  -458  -503  -550  -576  -567  -518  -449  -395  -375  -375  -380  -384  -386  -379  -352  -272  -117  67  197  245  245  235  222  199  157  94  13  -68  -126  -130  -92  -83  -178  -409  -753  -1106  -1338  -1327  -974  -358  169  219  -241  -785  -890  -433  223  561  307  -372  -979  -1066  -677  -256  -28  133  367  740  1235  1679  1905  1916  1807  1663  1538  1428  1265  986  628  306  97  -9  -83  -189  -324  -418  -400  -240  8  224  330  334  262  130  -11  -86  -55  46  139  157  100  13  -66  -118  -132  -84  47  213  286  193  8  -134  -173  -125  -16  125  248  322  358  383  412  456  514  598  710  828  934  1016  1046  1022  981  951  924  899  893  911  938  955  959  962  982  1022  1063  1050  922  669  351  58  -128  -197  -198  -186  -189  -231  -328  -455  -554  -590  -574  -533  -486  -442  -403  -379  -379  -412  -476  -549  -610  -651  -666  -626  -501  -300  -95  32  65  39  -2  -28  -21  9  29  14  -31  -96  -164  -208  -223  -221  -217  -214  -206  -196  -196  -213  -228  -214  -179  -148  -131  -126  -149  -221  -333  -435  -485  -470  -385  -251  -125  -55  -46  -67  -92  -116  -138  -153  -159  -162  -164  -156  -120  -69  -60  -105  -135  -115  -84  -79  -99  -126  -147  -169  -199  -214  -186  -125  -70  -64  -121  -206  -266  -290  -299  -307  -308  -280  -212  -125  -59  -24  -5  5  6  -2  -17  -31  -36  -29  -14  1  20  56  108  158  201  251  321  395  429  380  236  36  -143  -279  -420  -578  -698  -748  -756  -764  -792  -822  -810  -705  -495  -257  -83  0  14  -25  -106  -203  -302  -401  -488  -521  -465  -355  -282  -228  -1  501  1163  1816  2287  2441  2361  2224  2066  1815  1367  751  193  -83  -32  185  262  42  -274  -421  -403  -342  -276  -225  -227  -283  -342  -348  -303  -233  -102  143  450  666  671  434  43  -305  -440  -352  -162  -10  52  69  96  143  177  184  188  214  265  314  311  226  83  -64  -114  54  392  692  830  844  836  870  940  1002  1036  1048  1049  1048  1038  1015  983  961  964  978  968  906  799  654  457  230  36  -114  -232  -282  -261  -274  -411  -613  -760  -821  -824  -776  -651  -436  -184  19  125  142  97  -8  -192  -420  -600  -687  -707  -690  -623  -480  -292  -142  -71  -66  -114  -207  -315  -390  -418  -424  -433  -451  -452  -368  -143  163  396  461  356  100  -215  -436  -508  -512  -536  -586  -589  -492  -346  -224  -141  -79  -15  57  107  104  61  2  -68  -159  -253  -314  -332  -326  -320  -322  -332  -338  -303  -198  -53  56  98  86  31  -74  -226  -381  -477  -505  -508  -528  -567  -603  -621  -629  -629  -600  -521  -417  -342  -301  -244  -139  -1  128  203  190  84  -65  -169  -158  -19  179  321  332  207  3  -203  -356  -435  -451  -426  -393  -385  -405  -432  -452  -458  -463  -471  -452  -400  -371  -417  -500  -531  -457  -321  -212  -163  -155  -199  -298  -291  101  878  1606  1923  1862  1619  1403  1371  1392  1121  545  62  -42  163  396  411  225  31  -83  -164  -221  -235  -250  -302  -361  -404  -454  -520  -562  -516  -357  -149  19  123  147  80  -27  -96  -99  -62  -26  -9  15  78  159  201  188  163  189  287  419  522  567  544  473  407  374  370  394  463  602  792  962  1046  1053  1054  1146  1345  1487  1416  1251  1210  1304  1426  1496  1431  1224  1015  882  733  430  -27  -421  -572  -556  -520  -530  -591  -591  -413  -131  79  157  128  4  -222  -500  -714  -770  -667  -488  -320  -204  -142  -124  -134  -181  -274  -380  -449  -470  -472  -479  -476  -425  -321  -215  -160  -149  -152  -156  -170  -209  -266  -319  -356  -387  -417  -436  -427  -375  -288  -182  -78  -29  -67  -125  -128  -83  -46  -38  -44  -48  -66  -122  -224  -354  -489  -599  -641  -592  -491  -400  -354  -340  -325  -285  -232  -201  -193  -187  -179  -173  -170  -162  -149  -144  -149  -144  -107  -37  39  95  115  96  22  -111  -275  -432  -558  -640  -682  -695  -697  -693  -672  -637  -621  -646  -685  -705  -708  -707  -710  -718  -734  -746  -710  -584  -400  -248  -165  -131  -129  -115  40  485  1189  1838  2037  1701  1167  881  1033  1399  1519  1153  442  -300  -764  -832  -641  -371  -183  -174  -265  -324  -328  -297  -228  -136  -73  -77  -142  -206  -204  -150  -112  -98  -64  -1  76  159  224  250  251  262  308  375  410  369  280  248  321  379  274  59  -53  84  400  685  816  831  810  785  746  693  650  643  694  826  1040  1277  1439  1479  1434  1365  1316  1276  1179  992  775  617  528  438  310  166  27  -108  -248  -365  -420  -403  -337  -259  -206  -199  -234  -287  -326  -342  -346  -345  -336  -315  -288  -271  -268  -273  -276  -270  -254  -242  -252  -292  -346  -388  -412  -434  -456  -472  -472  -460  -464  -499  -524  -500  -432  -338  -245  -154  -62  -34  -154  -376  -561  -634  -624  -590  -533  -419  -270  -157  -115  -120  -152  -225  -345  -473  -544  -549  -538  -532  -486  -357  -184  -73  -71  -129  -180  -215  -264  -331  -379  -380  -349  -328  -345  -384  -424  -462  -501  -550  -606  -640  -613  -495  -293  -81  52  89  79  67  66  73  84  98  105  72  -42  -218  -370  -441  -444  -413  -362  -303  -255  -234  -250  -286  -262  -64  313  710  950  994  877  632  323  37  -187  -343  -394  -346  -299  -332  -409  -466  -493  -517  -535  -502  -379  -210  -112  -151  -277  -402  -489  -550  -597  -598  -534  -441  -382  -422  -480  -251  448  1333  1905  2029  1958  1897  1898  1919  1783  1378  834  413  288  345  301  59  -253  -456  -453  -320  -195  -112  -44  19  76  102  50  -88  -267  -428  -527  -553  -496  -348  -150  12  100  136  157  173  180  187  197  184  117  21  -30  -4  59  113  156  216  297  379  460  551  627  670  728  826  913  947  946  941  942  948  949  945  944  963  1010  1054  1044  951  806  680  622  613  593  516  382  231  100  -16  -152  -299  -397  -418  -386  -340  -306  -287  -270  -253  -253  -282  -330  -369  -387  -393  -395  -386  -346  -269  -180  -107  -60  -38  -31  -27  -19  -23  -85  -242  -462  -651  -722  -631  -390  -104  92  161  158  131  78  -7  -122  -235  -299  -288  -219  -139  -92  -83  -85  -62  5  86  103  7  -150  -278  -351  -412  -473  -481  -394  -265  -179  -157  -166  -171  -150  -95  -22  28  18  -64  -194  -319  -396  -423  -420  -387  -319  -226  -130  -53  -13  -31  -117  -235  -323  -353  -332  -270  -191  -130  -107  -127  -195  -302  -410  -489  -535  -556  -567  -598  -628  -589  -484  -378  -296  -221  -133  -37  28  25  -50  -157  -234  -245  -191  -96  25  181  343  425  368  205  39  -40  -26  20  52  71  86  62  -71  -336  -638  -845  -890  -772  -554  -350  -240  -206  -183  -130  -57  -20  -77  -249  -482  -689  -806  -806  -702  -535  -339  -139  25  108  91  50  177  622  1290  1935  2366  2456  2165  1721  1485  1487  1418  1063  453  -196  -581  -559  -259  26  69  -100  -258  -285  -223  -91  113  294  355  287  124  -68  -199  -235  -214  -183  -164  -157  -157  -165  -189  -225  -248  -218  -100  102  332  487  495  394  293  248  238  231  231  261  348  491  642  754  820  854  876  906  963  1049  1149  1243  1323  1388  1418  1394  1308  1164  994  856  774  728  674  580  460  368  335  344  363  352  259  64  -179  -383  -511  -577  -613  -635  -638  -637  -654  -688  -706  -662  -505  -230  47  126  -97  -480  -772  -869  -821  -689  -516  -344  -178  -29  39  0  -95  -182  -258  -330  -381  -392  -374  -347  -328  -322  -329  -349  -371  -373  -342  -292  -251  -220  -174  -100  -22  28  32  0  -49  -120  -216  -315  -398  -462  -489  -457  -375  -269  -162  -77  -18  33  86  113  82  -12  -173  -388  -590  -709  -729  -655  -480  -250  -63  18  19  4  27  90  145  140  44  -135  -321  -443  -521  -603  -676  -692  -622  -482  -345  -267  -217  -138  -54  -46  -140  -287  -422  -493  -482  -406  -314  -253  -235  -229  -212  -182  -140  -89  -43  -12  3  -7  -44  -69  -58  -34  -10  48  180  343  423  346  157  -45  -204  -313  -416  -571  -751  -870  -897  -852  -741  -583  -447  -382  -372  -378  -387  -410  -455  -496  -496  -458  -421  -393  -338  -237  -132  -93  -101  50  516  1114  1537  1708  1754  1844  2054  2253  2149  1561  685  -23  -254  -55  304  551  512  215  -117  -314  -384  -406  -421  -426  -388  -271  -85  95  200  231  228  196  97  -103  -362  -558  -602  -507  -331  -130  39  138  177  193  205  216  222  233  262  302  329  328  307  287  275  270  300  388  506  611  706  829  983  1087  1091  1043  1001  979  974  980  973  927  839  729  629  565  544  549  564  572  542  450  318  206  136  81  18  -58  -153  -250  -312  -324  -317  -336  -414  -527  -614  -644  -620  -553  -470  -415  -404  -412  -395  -317  -198  -99  -63  -76  -98  -100  -64  18  126  206  222  164  31  -160  -354  -478  -520  -539  -586  -657  -715  -740  -730  -676  -577  -460  -385  -375  -388  -379  -343  -291  -255  -259  -299  -349  -387  -415  -436  -444  -418  -338  -210  -85  -8  32  54  22  -113  -323  -491  -540  -497  -420  -325  -226  -158  -141  -163  -197  -217  -212  -193  -184  -209  -264  -297  -257  -118  72  183  114  -96  -219  29  561  931  822  244  -517  -1008  -972  -614  -342  -339  -480  -547  -467  -336  -252  -232  -273  -384  -537  -661  -706  -687  -656  -649  -660  -652  -597  -517  -455  -418  -361  -220  37  400  821  1223  1521  1674  1714  1703  1644  1474  1149  737  390  194  100  30  -30  -71  -106  -151  -194  -219  -224  -221  -218  -216  -218  -224  -228  -228  -231  -248  -269  -241  -110  92  250  289  231  125  -7  -145  -235  -239  -160  -40  65  141  219  308  382  432  481  543  591  602  585  556  529  514  529  618  810  1039  1198  1266  1299  1332  1360  1373  1370  1348  1299  1204  1048  845  623  430  317  284  294  309  274  165  14  -132  -243  -315  -371  -412  -423  -409  -394  -384  -381  -403  -467  -555  -623  -640  -605  -521  -393  -261  -174  -148  -153  -164  -176  -190  -201  -200  -178  -126  -46  39  101  121  90  4  -106  -183  -202  -193  -208  -282  -398  -509  -584  -618  -586  -452  -235  -31  76  97  71  20  -43  -99  -134  -146  -141  -131  -140  -199  -315  -440  -519  -544  -546  -539  -497  -391  -247  -134  -81  -74  -116  -226  -375  -493  -549  -555  -512  -410  -285  -216  -238  -320  -403  -440  -428  -395  -353  -298  -233  -171  -130  -133  -205  -344  -471  -491  -385  -220  -76  11  43  14  -80  -208  -302  -323  -277  -189  -86  10  86  128  139  126  82  11  -68  -131  -165  -180  -207  -267  -329  -345  -316  -289  -299  -361  -464  -565  -613  -591  -523  -447  -388  -366  -389  -448  -537  -648  -738  -715  -517  -193  146  476  897  1425  1853  1989  1841  1540  1264  1129  1095  1050  907  647  371  198  114  75  111  163  77  -123  -271  -317  -324  -333  -351  -370  -389  -410  -426  -411  -322  -144  38  125  130  122  127  139  144  104  -8  -156  -271  -331  -358  -356  -303  -174  11  190  311  376  433  518  611  669  685  685  701  746  795  807  792  789  804  822  845  895  993  1117  1209  1244  1233  1187  1106  997  859  700  554  432  274  41  -217  -415  -511  -515  -453  -350  -235  -134  -53  -10  -33  -144  -306  -431  -475  -454  -403  -353  -328  -331  -352  -375  -393  -425  -496  -585  -617  -544  -410  -316  -305  -319  -265  -101  69  78  -107  -368  -591  -735  -793  -764  -636  -431  -228  -96  -67  -160  -344  -514  -559  -451  -267  -119  -51  -35  -41  -69  -133  -215  -262  -252  -217  -209  -249  -328  -412  -470  -489  -458  -362  -208  -55  34  50  23  -25  -83  -121  -100  5  163  272  202  -112  -553  -869  -910  -714  -431  -222  -141  -151  -226  -357  -476  -479  -377  -281  -240  -211  -142  -57  -48  -123  -187  -233  -332  -451  -498  -452  -360  -272  -190  -71  86  222  281  260  184  83  -32  -162  -279  -355  -391  -403  -383  -313  -206  -128  -125  -199  -335  -496  -624  -691  -705  -662  -559  -431  -364  -414  -503  -510  -429  -338  -289  -284  -296  -283  -165  136  594  1095  1547  1907  2145  2271  2299  2153  1744  1130  537  218  283  560  648  288  -330  -806  -875  -482  120  431  224  -191  -451  -518  -525  -549  -572  -525  -356  -123  46  106  98  72  42  3  -41  -74  -81  -53  14  112  223  320  369  362  327  304  317  368  439  503  540  547  544  561  620  722  854  995  1114  1187  1215  1216  1211  1208  1210  1213  1211  1209  1217  1234  1229  1168  1027  805  552  341  204  120  71  56  54  3  -143  -331  -435  -421  -360  -320  -312  -314  -313  -319  -346  -386  -408  -401  -380  -354  -318  -270  -228  -208  -212  -232  -265  -320  -391  -438  -408  -283  -125  -37  -39  -72  -90  -99  -122  -170  -246  -340  -426  -462  -418  -320  -244  -241  -303  -375  -415  -440  -473  -506  -522  -525  -528  -535  -525  -484  -429  -383  -359  -359  -380  -414  -450  -476  -477  -431  -327  -201  -118  -123  -208  -324  -419  -473  -504  -531  -544  -520  -451  -356  -270  -215  -181  -154  -135  -126  -117  -104  -91  -94  -159  -335  -598  -830  -952  -965  -868  -650  -377  -172  -81  -60  -65  -93  -154  -216  -240  -206  -92  74  205  253  249  237  232  230  221  193  134  37  -79  -183  -263  -333  -393  -420  -411  -391  -384  -388  -392  -397  -404  -417  -430  -418  -390  -366  -334  -307  -322  -370  -415  -453  -497  -517  -345  236  1203  2094  2377  2048  1608  1494  1822  2405  2682  2138  993  -19  -438  -262  209  540  514  332  254  268  275  249  150  -52  -282  -405  -361  -181  66  287  405  427  404  371  332  278  212  158  134  134  133  100  36  -3  31  130  273  456  634  739  763  747  726  711  707  728  788  871  934  946  912  864  836  842  885  964  1086  1257  1477  1694  1825  1812  1639  1357  1069  851  698  561  415  277  166  91  50  31  13  -29  -106  -196  -262  -282  -252  -224  -270  -357  -384  -340  -279  -232  -205  -200  -219  -264  -317  -357  -384  -404  -404  -367  -290  -193  -117  -109  -186  -286  -335  -300  -195  -117  -120  -114  -100  -173  -301  -392  -425  -407  -360  -340  -385  -469  -494  -381  -178  -17  44  46  25  -32  -158  -357  -561  -638  -495  -185  114  272  282  197  74  -27  -76  -83  -78  -73  -66  -50  -25  0]
