reading_id,reading_time,wire_id,result_classification,heart_rate,heart_rate_alert,firmware_version,device_app_version,hardware_version,waveform_samples
e66cc2c0-9486-11ee-8080-808080808080,Wed Dec 06 22:29:20 UTC 2023,e150772d2e39,NSR,66,NONE,20001.188.58,2.13.0,Charge 5,[-745  -1504  -2334  -3222  -4014  -4579  -4995  -5480  -6174  -7007  -7848  -8671  -9442  -10020  -10327  -10453  -10559  -10777  -11178  -11720  -12222  -12536  -12674  -12722  -12744  -12762  -12776  -12786  -12794  -12803  -12829  -12903  -13044  -13237  -13416  -13487  -13381  -13123  -12841  -12654  -12579  -12574  -12594  -12600  -12570  -12439  -12139  -11805  -11665  -11737  -11834  -11774  -11526  -11219  -11051  -11171  -11518  -11728  -11455  -10778  -10074  -9589  -9400  -9477  -9613  -9568  -9244  -8722  -8211  -7856  -7585  -7260  -6913  -6698  -6645  -6603  -6403  -6022  -5598  -5282  -5127  -5072  -5024  -4953  -4875  -4776  -4626  -4425  -4182  -3904  -3598  -3306  -3098  -3002  -2959  -2906  -2812  -2645  -2369  -2021  -1720  -1543  -1468  -1423  -1355  -1267  -1202  -1180  -1186  -1194  -1187  -1158  -1118  -1085  -1066  -1060  -1073  -1112  -1155  -1164  -1137  -1095  -1013  -814  -506  -218  -59  -17  -16  22  140  299  414  445  420  380  380  454  570  663  698  688  661  624  581  610  895  1570  2532  3501  4204  4461  4312  3994  3644  3159  2476  1677  847  154  -213  -309  -318  -336  -370  -376  -323  -249  -207  -229  -320  -441  -529  -567  -586  -606  -623  -631  -635  -643  -645  -606  -495  -329  -168  -53  4  12  -33  -149  -305  -415  -424  -337  -212  -110  -41  14  61  105  168  277  442  635  796  903  1017  1243  1602  1995  2317  2538  2707  2915  3172  3381  3473  3479  3457  3432  3427  3488  3660  3916  4184  4426  4644  4825  4981  5175  5462  5810  6133  6390  6595  6750  6836  6853  6859  6948  7180  7507  7785  7898  7850  7757  7745  7874  8109  8358  8565  8735  8881  9001  9094  9169  9226  9257  9250  9196  9097  8974  8845  8732  8668  8658  8637  8476  8060  7450  6882  6516  6309  6171  6062  5964  5861  5724  5514  5211  4860  4530  4240  3999  3826  3675  3463  3194  2939  2689  2406  2145  1964  1850  1760  1650  1473  1211  922  671  455  246  69  -29  -50  -37  -32  -63  -135  -199  -202  -182  -220  -339  -530  -769  -979  -1089  -1116  -1107  -1071  -990  -879  -798  -802  -907  -1076  -1242  -1367  -1452  -1509  -1560  -1661  -1870  -2138  -2327  -2329  -2137  -1841  -1583  -1433  -1384  -1413  -1477  -1521  -1530  -1521  -1515  -1518  -1520  -1519  -1532  -1593  -1713  -1847  -1919  -1912  -1854  -1813  -1923  -2167  -2260  -1935  -1143  -67  901  1419  1434  1116  658  168  -314  -825  -1334  -1637  -1643  -1543  -1533  -1628  -1751  -1845  -1900  -1925  -1906  -1834  -1731  -1634  -1575  -1562  -1574  -1598  -1624  -1625  -1547  -1320  -947  -571  -352  -304  -335  -366  -349  -254  -90  94  272  456  687  999  1335  1566  1646  1638  1596  1529  1450  1391  1366  1361  1362  1366  1388  1433  1486  1525  1536  1520  1508  1522  1536  1512  1423  1232  928  599  364  244  196  200  246  316  378  376  279  97  -139  -359  -484  -511  -496  -476  -454  -431  -451  -570  -763  -918  -976  -977  -971  -963  -920  -815  -672  -553  -492  -486  -536  -654  -838  -1050  -1248  -1406  -1491  -1477  -1365  -1207  -1057  -909  -750  -625  -578  -589  -609  -615  -627  -652  -666  -651  -613  -568  -531  -518  -564  -698  -879  -1012  -1057  -1051  -1035  -1015  -990  -959  -928  -910  -914  -938  -954  -911  -803  -708  -705  -787  -858  -823  -684  -521  -401  -340  -318  -337  -443  -667  -936  -1131  -1207  -1192  -1129  -1058  -1012  -1002  -1007  -1001  -986  -977  -974  -973  -973  -975  -980  -984  -985  -984  -986  -1001  -1026  -1035  -1032  -1072  -1166  -1251  -1289  -1307  -1337  -1370  -1359  -1271  -1139  -1032  -968  -915  -861  -825  -728  -426  92  692  1161  1321  1261  1258  1398  1515  1384  886  155  -442  -659  -602  -492  -422  -397  -392  -360  -303  -261  -245  -249  -268  -291  -311  -323  -326  -323  -325  -346  -389  -413  -371  -279  -201  -158  -107  -30  46  91  101  90  67  47  63  146  263  344  360  344  343  374  418  455  472  471  473  520  653  846  1009  1089  1109  1120  1140  1135  1057  917  773  649  525  382  241  146  81  -15  -161  -310  -434  -526  -568  -549  -473  -365  -265  -208  -192  -193  -205  -239  -297  -352  -394  -435  -472  -482  -456  -416  -411  -457  -502  -496  -462  -440  -430  -412  -387  -365  -345  -314  -276  -253  -255  -256  -238  -209  -171  -124  -73  -20  32  82  126  153  137  59  -53  -139  -169  -169  -171  -181  -175  -129  -67  -30  -15  -5  3  8  13  41  106  186  238  251  247  243  241  232  210  173  101  -36  -215  -347  -375  -300  -150  23  171  262  291  262  186  90  1  -98  -243  -423  -544  -497  -315  -152  -92  -97  -112  -114  -103  -90  -87  -102  -126  -144  -151  -151  -151  -170  -225  -310  -353  -197  241  798  1256  1594  1839  1959  1983  1909  1612  1078  544  275  352  667  963  940  587  219  55  40  54  43  -17  -140  -291  -398  -403  -300  -131  33  152  237  297  319  277  162  7  -122  -198  -231  -245  -246  -199  -67  111  240  275  261  259  285  316  333  348  374  409  444  466  477  490  522  574  628  663  648  569  461  390  383  401  402  380  334  263  173  89  31  -4  -42  -107  -216  -350  -452  -492  -494  -484  -465  -423  -347  -243  -160  -175  -335  -593  -799  -823  -695  -557  -487  -469  -473  -476  -461  -426  -384  -347  -306  -271  -258  -272  -303  -335  -362  -389  -414  -438  -473  -521  -570  -618  -660  -680  -662  -582  -437  -296  -213  -153  -108  -130  -231  -357  -444  -482  -503  -512  -484  -417  -344  -324  -387  -481  -541  -563  -563  -520  -409  -256  -124  -52  -22  -5  12  26  32  38  43  35  -15  -124  -271  -410  -494  -519  -498  -441  -376  -360  -437  -585  -725  -800  -814  -781  -702  -600  -523  -493  -487  -467  -404  -308  -223  -191  -246  -403  -606  -749  -791  -774  -754  -753  -754  -675  -397  122  783  1375  1703  1779  1833  2007  2143  2021  1624  1074  574  303  273  352  377  296  191  117  57  -1  -60  -131  -211  -268  -291  -301  -305  -265  -139  39  175  223  212  181  154  132  96  42  -14  -46  -37  17  130  284  401  424  385  349  356  428  556  687  769  790  778  769  776  787  788  780  773  776  791  816  853  893  921  929  922  896  840  747  632  523  435  370  323  286  244  174  53  -92  -203  -264  -317  -362  -352  -275  -175  -101  -76  -96  -134  -168  -194  -204  -202  -218  -264  -307  -321  -316  -311  -313  -313  -294  -245  -180  -136  -165  -294  -480  -631  -694  -655  -508  -296  -118  -47  -81  -174  -293  -434  -574  -667  -683  -620  -514  -460  -503  -568  -586  -580  -602  -677  -790  -901  -978  -984  -897  -766  -667  -623  -626  -670  -756  -865  -949  -979  -964  -931  -900  -878  -871  -904  -1001  -1127  -1194  -1155  -1057  -974  -928  -895  -866  -847  -829  -798  -753  -716  -694  -674  -631  -569  -513  -483  -482  -522  -633  -809  -979  -1075  -1097  -1081  -1040  -968  -875  -785  -720  -684  -670  -668  -689  -760  -884  -1011  -1085  -1105  -1106  -1104  -1072  -966  -800  -651  -588  -613  -690  -771  -817  -828  -824  -823  -831  -836  -790  -614  -209  462  1256  1911  2266  2370  2376  2355  2259  1987  1491  903  449  233  198  186  84  -64  -160  -191  -206  -238  -277  -302  -328  -390  -474  -534  -545  -510  -445  -367  -297  -256  -246  -250  -248  -201  -64  145  334  435  472  478  438  354  306  370  525  696  844  962  1032  1052  1049  1043  1039  1035  1033  1049  1100  1188  1293  1394  1470  1513  1533  1540  1522  1465  1373  1283  1233  1223  1222  1199  1147  1089  1043  1013  990  960  911  846  781  730  691  662  644  632  616  595  578  570  555  522  492  493  528  605  745  919  1039  1031  890  691  549  518  578  678  764  806  817  814  796  747  678  626  612  618  614  585  545  536  588  680  752  751  654  509  403  368  375  385  372  319  234  143  68  27  43  113  189  217  184  121  69  45  40  46  59  77  94  109  116  103  58  -9  -64  -92  -106  -117  -126  -137  -157  -196  -260  -323  -345  -338  -344  -373  -409  -435  -438  -406  -348  -289  -246  -214  -177  -134  -103  -94  -100  -117  -134  -145  -158  -198  -277  -384  -502  -621  -725  -802  -846  -858  -851  -843  -849  -885  -947  -1006  -1050  -1094  -1143  -1176  -1186  -1183  -1186  -1204  -1231  -1251  -1256  -1246  -1226  -1200  -1169  -1137  -1112  -1100  -1098  -1085  -1040  -991  -983  -909  -525  256  1232  2047  2464  2512  2378  2190  1912  1446  812  185  -247  -384  -281  -162  -159  -181  -152  -104  -68  -34  1  19  -1  -42  -76  -93  -79  -17  104  259  389  464  499  510  499  475  445  413  377  303  197  107  53  42  83  157  230  274  287  294  323  381  461  552  636  694  724  729  706  657  601  563  548  553  582  639  677  630  507  365  225  91  1  -26  -17  -2  -2  -46  -159  -314  -436  -475  -431  -332  -237  -191  -185  -208  -272  -384  -526  -649  -714  -726  -703  -657  -606  -571  -555  -551  -552  -555  -557  -555  -551  -544  -531  -509  -493  -492  -500  -507  -506  -493  -471  -440  -403  -369  -338  -308  -291  -304  -334  -363  -389  -412  -424  -429  -433  -443  -468  -501  -526  -537  -539  -536  -522  -492  -440  -372  -319  -315  -357  -428  -525  -636  -720  -755  -747  -706  -628  -524  -441  -415  -435  -475  -515  -543  -548  -522  -455  -362  -280  -219  -181  -184  -233  -308  -381  -419  -412  -388  -362  -297  -146  75  281  398  416  360  269  197  168  166  170  168  153  107  13  -112  -226  -303  -351  -375  -372  -341  -291  -241  -196  -148  -97  -72  -91  -127  -166  -236  -352  -469  -535  -544  -525  -500  -477  -451  -415  -372  -332  -294  -241  -178  -178  -293  -371  -122  574  1530  2408  3004  3272  3222  2971  2652  2192  1534  847  304  -20  -116  -65  18  76  99  99  94  93  95  98  91  69  30  -15  -58  -74  -54  -38  -58  -78  -50  25  120  209  272  290  265  225  207  216  232  241  246  255  278  318  355  368  364  365  375  384  393  415  461  548  686  845  967  1025  1020  949  823  689  592  545  527  504  440  317  170  57  -1  -39  -87  -143  -186  -208  -219  -232  -255  -292  -337  -377  -407  -430  -444  -432  -380  -300  -230  -191  -178  -178  -189  -212  -241  -262  -262  -240  -204  -173  -157  -149  -145  -140  -134  -132  -136  -139  -111  -30  80  161  185  180  179  199  232  259  270  271  265  244  199  139  99  108  169  239  262  224  143  56  14  26  53  68  71  62  49  36  14  -30  -87  -126  -137  -133  -129  -131  -151  -195  -251  -294  -320  -340  -351  -345  -325  -292  -230  -134  -33  36  74  109  156  200  240  297  378  468  550  613  640  587  414  151  -102  -280  -366  -358  -280  -185  -112  -74  -74  -121  -213  -319  -398  -438  -449  -446  -441  -452  -496  -580  -671  -722  -720  -701  -690  -684  -670  -643  -605  -559  -513  -482  -475  -502  -579  -702  -790  -693  -303  333  1013  1529  1839  2015  2093  2025  1754  1278  697  209  -45  -103  -102  -162  -285  -366  -354  -301  -252  -200  -147  -112  -94  -81  -70  -85  -139  -213  -275  -307  -314  -307  -298  -291  -282  -259  -224  -198  -190  -192  -179  -130  -44  42  93  108  114  140  193  250  301  363  429  475  497  507  527  566  618  680  749  795  798  761  708  661  615  551  475  416  400  413  415  374  272  129  5  -70  -117  -171  -258  -373  -489  -570  -596  -579  -545  -518  -508  -527  -580  -651  -702  -719  -716  -706  -687  -657  -631  -628  -638  -623  -558  -464  -390  -356  -349  -354  -357  -346  -313  -273  -247  -238  -231  -219  -212  -216  -226  -230  -226  -219  -223  -249  -292  -335  -363  -381  -399  -412  -404  -371  -332  -315  -330  -365  -389  -381  -350  -320  -294  -278  -279  -297  -340  -405  -466  -495  -496  -487  -477  -458  -424  -391  -381  -391  -407  -415  -413  -397  -369  -336  -300  -255  -195  -140  -123  -154  -202  -235  -248  -251  -251  -229  -167  -87  -49  -86  -164  -223  -240  -240  -270  -367  -513  -646  -741  -809  -859  -887  -894  -895  -897  -900  -898  -887  -866  -842  -826  -821  -824  -829  -833  -818  -762  -680  -627  -627  -657  -686  -674  -559  -309  63  529  1026  1499  1900  2161  2256  2194  1978  1567  964  357  -17  -115  -27  62  -28  -264  -418  -373  -229  -121  -67  -36  -29  -82  -217  -386  -504  -529  -478  -388  -305  -269  -288  -349  -433  -520  -575  -539  -360  -69  203  372  470  564  672  775  868  956  1046  1139  1236  1340  1468  1607  1716  1771  1770  1735  1707  1694  1684  1673  1659  1643  1613  1549  1465  1398  1371  1363  1331  1249  1140  1031  915  774  624  498  396  283  161  73  39  40  62  102  146  157  114  41  -15  -40  -48  -56  -60  -52  -37  -25  -22  -25  -30  -31  -33  -42  -54  -63  -63  -59  -65  -92  -124  -116  -46  38  59  -7  -117  -206  -239  -224  -195  -175  -159  -144  -134  -129  -122  -109  -95  -88  -88  -92  -91  -73  -23  49  99  71  -63  -250  -390  -437  -408  -330  -240  -201  -245  -340  -421  -450  -424  -350  -258  -185  -137  -107  -104  -143  -207  -266  -320  -378  -410  -390  -347  -326  -335  -356  -360  -342  -328  -333  -342  -347  -352  -360  -363  -363  -363  -365  -368  -358  -317  -234  -123  -7  87  144  167  171  148  65  -76  -219  -314  -372  -421  -466  -504  -530  -533  -520  -513  -529  -567  -613  -662  -709  -748  -774  -785  -785  -780  -773  -765  -743  -695  -633  -589  -573  -570  -567  -574  -609  -663  -711  -746  -782  -827  -882  -924  -852  -504  171  1025  1815  2349  2561  2547  2501  2486  2329  1865  1156  440  -26  -146  -57  5  -25  -46  -34  -79  -216  -369  -440  -417  -369  -347  -346  -336  -298  -241  -195  -165  -135  -99  -68  -39  2  58  113  155  190  214  218  216  239  293  355  399  422  431  433  448  510  628  755  835  864  874  882  888  893  901  918  934  948  969  996  1011  1006  979  928  840  722  609  518  425  317  220  156  115  86  67  50  21  -29  -86  -126  -145  -159  -173  -194  -228  -265  -290  -304  -315  -319  -301  -251  -194  -162  -142  -120  -117  -126  -116  -86  -55  -29  -7  9  13  -2  -21  -21  1  31  47  49  42  13  -57  -150  -206  -198  -153  -116  -103  -105  -108  -107  -103  -95  -80  -61  -48  -56  -92  -141  -177  -187  -182  -180  -199  -252  -323  -382  -419  -440  -456  -472  -476  -464  -445  -434  -434  -441  -442  -425  -385  -339  -297  -267  -275  -322  -375  -419  -466  -518  -547  -503  -386  -258  -179  -163  -187  -221  -247  -258  -256  -245  -233  -215  -164  -53  89  193  227  207  147  51  -51  -119  -144  -159  -195  -260  -330  -374  -384  -372  -355  -345  -363  -421  -497  -554  -576  -578  -576  -575  -563  -527  -481  -462  -491  -547  -590  -603  -601  -598  -597  -599  -604  -607  -604  -579  -522  -468  -475  -473  -237  378  1280  2222  2960  3344  3378  3170  2811  2294  1609  877  282  -62  -136  -11  137  153  44  -78  -145  -163  -150  -113  -61  -17  4  4  -18  -66  -125  -170  -183  -153  -95  -46  -30  -31  -15  32  93  125  119  94  72  81  140  242  350  424  459  474  483  489  492  497  502  507  523  569  636  691  712  705  699  712  751  800  832  846  853  822  740  641  555  478  389  274  147  41  -39  -114  -186  -238  -265  -282  -299  -319  -343  -366  -394  -437  -482  -509  -510  -491  -461  -425  -382  -334  -291  -261  -261  -305  -374  -430  -448  -422  -366  -309  -278  -280  -298  -303  -287  -261  -229  -192  -159  -143  -146  -166  -191  -209  -215  -214  -210  -205  -200  -202  -223  -274  -362  -478  -586  -620  -543  -404  -294  -251  -250  -263  -280  -302  -325  -341  -350  -361  -383  -417  -457  -491  -509  -511  -501  -475  -420  -349  -303  -312  -359  -388  -363  -309  -267  -251  -254  -263  -273  -292  -323  -355  -375  -380  -370  -336  -272  -190  -120  -75  -50  -39  -34  -30  -20  5  48  116  214  315  360  312  189  55  -48  -115  -146  -150  -141  -141  -169  -234  -316  -373  -385  -367  -350  -344  -341  -331  -315  -317  -347  -375  -374  -358  -349  -353  -363  -374  -388  -410  -432  -448  -457  -450  -413  -332  -254  -282  -371  -285  128  794  1532  2173  2601  2793  2835  2765  2459  1833  1061  436  137  177  395  522  432  213  -11  -167  -237  -248  -225  -170  -94  -16  59  136  204  245  251  231  190  120  36  -13  6  82  153  162  114  63  41  37  30  16  16  81  247  452  576  582  537  501  489  497  530  614  762  927  1035  1056  1012  938  873  838  827  829  837  847  843  793  679  528  396  304  231  160  92  26  -49  -142  -242  -326  -380  -420  -475  -544  -598  -617  -590  -516  -428  -388  -430  -520  -593  -619  -595  -522  -427  -352  -318  -310  -320  -347  -388  -427  -447  -448  -440  -432  -421  -402  -383  -373  -374  -372  -331  -241  -151  -107  -101  -107  -125  -178  -282  -404  -489  -517  -513  -496  -462  -403  -330  -268  -234  -238  -279  -322  -333  -325  -318  -320  -327  -334  -349  -380  -414  -426  -403  -357  -314  -295  -307  -353  -420  -476  -504  -505  -479  -421  -353  -308  -297  -291  -263  -208  -145  -89  -42  -7  14  21  9  -23  -56  -58  -20  38  92  122  113  62  -11  -72  -103  -117  -146  -213  -298  -371  -423  -448  -428  -367  -307  -298  -353  -447  -541  -600  -614  -597  -561  -518  -484  -468  -470  -484  -495  -490  -466  -432  -403  -384  -386  -450  -568  -585  -319  236  941  1589  2017  2206  2261  2267  2193  1926  1418  782  214  -157  -308  -285  -172  -48  30  55  46  18  -20  -57  -73  -66  -28  51  151  210  187  94  -7  -58  -60  -48  -43  -42  -33  -3  47  109  164  195  196  180  176  216  298  372  417  452  490  525  560  607  665  715  740  747  752  762  781  807  840  872  885  866  816  742  666  614  595  593  589  566  500  374  214  73  -35  -135  -235  -312  -341  -318  -265  -212  -177  -166  -186  -248  -337  -413  -449  -455  -451  -442  -421  -381  -331  -293  -279  -281  -287  -289  -292  -304  -324  -337  -328  -303  -275  -253  -226  -183  -136  -114  -134  -178  -213  -226  -230  -236  -244  -249  -252  -256  -252  -232  -194  -161  -171  -227  -289  -324  -333  -335  -343  -349  -346  -335  -325  -325  -334  -341  -341  -335  -332  -335  -341  -342  -335  -325  -324  -327  -318  -289  -246  -205  -176  -149  -107  -50  -1  26  35  38  43  45  37  16  -14  -56  -115  -179  -223  -240  -255  -289  -333  -365  -378  -378  -364  -329  -281  -249  -261  -324  -406  -464  -482  -479  -476  -476  -469  -444  -405  -364  -329  -288  -226  -163  -156  -246  -394  -525  -611  -632  -492  -83  579  1324  1951  2356  2541  2562  2474  2282  1928  1362  711  212  -35  -76  -9  53  85  90  39  -43  -90  -86  -56  -34  -36  -46  -43  -29  -14  -3  7  16  23  28  31  31  29  39  67  102  126  132  130  123  108  90  100  189  363  551  669  700  688  672  670  702  772  857  923  963  991  1008  1015  1015  1004  973  930  896  883  887  898  902  859  728  524  336  226  171  127  89  66  46  4  -70  -160  -227  -253  -253  -245  -232  -207  -175  -151  -143  -144  -148  -152  -159  -170  -194  -242  -304  -351  -372  -376  -366  -335  -285  -234  -200  -187  -186  -192  -205  -224  -243  -261  -262  -223  -140  -45  23  46  21  -33  -96  -161  -245  -335  -374  -327  -235  -170  -163  -192  -227  -272  -342  -421  -457  -411  -301  -186  -108  -70  -69  -110  -189  -289  -390  -457  -466  -433  -397  -380  -374  -374  -376  -378  -372  -352  -319  -290  -275  -275  -281  -285  -266  -205  -115  -41  -4  15  43  84  131  177  213  224  183  58  -154  -391  -553  -608  -603  -583  -565  -549  -540  -545  -566  -611  -671  -722  -756  -786  -813  -821  -800  -751  -693  -643  -600  -569  -555  -541  -515  -499  -531  -610  -696  -774  -887  -1063  -1189  -1044  -537  186  952  1638  2143  2438  2568  2544  2301  1794  1112  468  45  -124  -132  -117  -189  -342  -474  -525  -523  -511  -504  -498  -499  -525  -587  -641  -607  -467  -303  -212  -215  -264  -312  -344  -368  -375  -349  -276  -171  -85  -65  -102  -149  -172  -174  -172  -163  -127  -48  59  167  248  288  301  328  404  511  596  627  615  583  544  509  488  485  499  529  575  623  644  608  499  326  140  4  -72  -127  -178  -229  -281  -338  -405  -477  -536  -568  -576  -572  -565  -552  -538  -535  -544  -553  -550  -538  -517  -483  -434  -368  -296  -262  -300  -394  -479  -499  -457  -409  -385  -370  -345  -312  -290  -290  -312  -349  -390  -424  -444  -451  -446  -426  -370  -264  -143  -60  -30  -30  -43  -58  -70  -80  -89  -94  -99  -103  -108  -126  -168  -224  -262  -256  -217  -176  -160  -176  -192  -179  -142  -98  -59  -32  -18  -15  -15  -25  -50  -85  -110  -118  -114  -111  -117  -139  -168  -172  -124  -39  37  78  90  96  111  147  204  269  325  359  374  384  397  407  409  390  330  214  60  -81  -171  -209  -224  -243  -281  -333  -372  -384  -376  -362  -346  -334  -327  -323  -322  -323  -335  -360  -394  -430  -460  -482  -489  -462  -388  -293  -227  -224  -283  -383  -513  -669  -763  -590  4  947  1967  2745  3107  3110  2920  2640  2298  1914  1495  1057  684  453  330  232  79  -157  -364  -417  -363  -296  -234  -161  -87  -40  -40  -87  -152  -198  -201  -170  -127  -98  -88  -89  -96  -112  -131  -143  -140  -122  -100  -89  -97  -119  -141  -129  -27  185  435  609  665  645  601  566  550  567  630  734  838  905  935  944  938  907  834  722  611  542  519  522  524  498  427  319  205  119  74  49  7  -51  -94  -106  -98  -93  -101  -119  -136  -151  -176  -219  -276  -340  -392  -418  -415  -385  -348  -312  -269  -231  -215  -215  -208  -180  -134  -82  -51  -72  -119  -138  -127  -111  -94  -80  -80  -102  -136  -162  -171  -159  -123  -72  -28  -2  4  -2  -14  -26  -40  -51  -50  -32  -9  -10  -41  -63  -56  -33  -18  -39  -94  -142  -158  -157  -154  -153  -147  -127  -97  -72  -60  -56  -59  -82  -138  -212  -270  -298  -301  -274  -202  -105  -35  -17  -40  -77  -108  -125  -131  -132  -120  -91  -47  -4  19  19  0  -27  -54  -78  -99  -103  -79  -35  19  103  237  394  513  554  523  457  392  332  261  178  97  28  -29  -77  -109  -123  -128  -133  -137  -151  -180  -215  -239  -250  -258  -282  -343  -443  -547  -608  -611  -577  -524  -466  -422  -409  -420  -436  -449  -456  -460  -459  -453  -482  -559  -604  -475  -24  740  1576  2241  2641  2773  2708  2528  2237  1768  1134  524  140  12  46  118  113  5  -120  -185  -199  -212  -254  -295  -281  -203  -113  -68  -80  -103  -97  -76  -68  -66  -54  -26  8  37  52  57  54  48  47  54  66  78  99  142  209  290  372  452  520  565  592  627  684  768  859  925  951  948  934  922  916  911  895  857  805  762  737  716  686  645  594  513  383  215  45  -92  -179  -219  -253  -327  -432  -517  -559  -575  -579  -568  -548  -537  -538  -527  -494  -459  -441  -441  -466  -529  -612  -672  -670  -599  -487  -389  -335  -322  -332  -353  -379  -408  -430  -440  -447  -454  -459  -463  -465  -466  -468  -472  -475  -466  -429  -353  -259  -189  -159  -158  -199  -299  -424  -495  -482  -432  -392  -371  -361  -359  -358  -357  -356  -348  -324  -275  -210  -156  -123  -115  -135  -178  -226  -261  -277  -271  -238  -179  -115  -70  -56  -82  -151  -238  -307  -345  -363  -359  -315  -213  -61  92  198  256  303  337  316  233  137  61  -1  -56  -90  -99  -101  -119  -166  -236  -317  -394  -429  -405  -357  -328  -326  -340  -377  -446  -532  -591  -601  -572  -530  -498  -482  -476  -473  -463  -438  -397  -357  -332  -331  -355  -405  -470  -539  -584  -556  -416  -128  349  931  1418  1736  1965  2145  2218  2111  1754  1140  456  -7  -128  -26  111  169  136  66  5  -35  -57  -65  -66  -64  -54  -34  -12  -7  -28  -66  -114  -167  -206  -217  -193  -128  -41  36  96  138  152  138  107  67  28  0  -17  -6  59  189  356  513  628  695  720  714  696  693  721  773  826  861  878  883  882  882  883  883  878  859  817  746  654  555  449  322  176  41  -49  -97  -129  -160  -182  -189  -184  -180  -198  -252  -327  -383  -411  -435  -480  -540  -571  -548  -494  -438  -388  -349  -324  -305  -288  -273  -269  -279  -290  -301  -322  -344  -347  -329  -311  -310  -314  -302  -280  -266  -266  -272  -288  -320  -364  -396  -397  -365  -318  -276  -248  -240  -253  -273  -286  -289  -282  -273  -268  -273  -290  -314  -329  -337  -351  -372  -385  -383  -377  -375  -377  -379  -379  -380  -385  -392  -401  -408  -398  -359  -304  -263  -250  -248  -247  -263  -304  -334  -297  -191  -79  -13  2  -6  -19  -29  -37  -25  32  123  194  214  198  163  104  2  -131  -249  -314  -330  -325  -318  -315  -313  -310  -310  -321  -353  -396  -427  -436  -433  -426  -408  -367  -312  -271  -257  -256  -259  -270  -294  -317  -324  -319  -315  -321  -342  -383  -444  -481  -366  37  740  1538  2150  2486  2643  2708  2722  2646  2334  1729  1018  454  174  168  281  337  314  268  218  154  73  -17  -86  -120  -129  -130  -130  -122  -90  -19  82  180  238  252  236  196  146  110  95  95  112  154  210  250  260  255  255  281  337  414  507  613  708  757  760  742  737  752  769  774  775  780  790  800  809  820  834  852  871  878  838  718  544  397  320  285  258  223  178  124  58  -30  -134  -213  -247  -259  -281  -325  -382  -437  -467  -444  -383  -329  -302  -297  -303  -313  -323  -332  -334  -328  -312  -289  -269  -258  -258  -264  -270  -269  -253  -215  -169  -137  -127  -128  -126  -120  -112  -109  -124  -169  -237  -297  -326  -328  -323  -326  -345  -371  -387  -390  -386  -381  -376  -374  -375  -379  -382  -378  -361  -323  -271  -226  -203  -194  -184  -172  -179  -230  -305  -360  -370  -351  -328  -314  -304  -296  -292  -290  -288  -290  -305  -332  -352  -349  -338  -335  -344  -363  -387  -405  -418  -432  -442  -439  -424  -401  -365  -315  -266  -234  -208  -163  -100  -46  -13  12  37  57  78  118  163  149  8  -233  -457  -570  -582  -548  -510  -489  -498  -543  -610  -670  -709  -720  -713  -722  -761  -808  -846  -877  -900  -908  -892  -844  -778  -726  -706  -707  -712  -716  -724  -742  -771  -819  -916  -1048  -1066  -771  -83  882  1869  2584  2890  2866  2651  2309  1842  1237  563  0  -315  -391  -329  -263  -297  -406  -506  -586  -662  -714  -721  -692  -656  -617  -559  -487  -429  -399  -395  -424  -501  -595  -649  -646  -618  -591  -565  -529  -469  -388  -314  -272  -256  -231  -179  -120  -85  -75  -65  -32  12  44  60  77  118  181  237  264  270  291  362  481  611  718  787  814  788  690  535  389  306  269  229  156  47  -75  -172  -225  -263  -326  -413  -485  -524  -534  -517  -469  -406  -359  -342  -345  -364  -413  -503  -612  -679  -642  -494  -329  -271  -319  -373  -385  -364  -327  -295  -280  -278  -283  -282  -255  -184  -89  -22  -4  -14  -22  -21  -13  -7  -4  -2  -22  -72  -124  -147  -141  -112  -66  -10  55  118  157  164  144  98  29  -43  -85  -64  26  155  262  315  326  320  311  307  305  293  257  206  163  139  123  119  145  204  275  340  391  429  451  458  450  423  375  311  230  150  105  103  129  170  232  298  331  322  300  289  288  290  289  284  279  278  273  249  207  170  159  182  233  282  304  301  294  312  361  414  454  486  514  530  518  476  429  400  386  365  306  190  38  -100  -185  -205  -188  -174  -168  -147  -97  -42  -4  10  -5  -49  -96  -126  -136  -133  -123  -115  -112  -115  -137  -183  -242  -293  -326  -335  -317  -277  -241  -243  -262  -159  256  1027  1943  2694  3093  3158  3022  2792  2534  2232  1785  1223  738  440  281  180  81  -32  -120  -126  -72  -19  17  44  60  64  66  75  97  134  170  184  172  132  56  -40  -122  -168  -183  -170  -130  -75  -27  2  16  28  68  153  258  333  358  360  367  379  399  441  513  601  682  752  816  872  921  955  965  965  968  972  972  964  941  890  808  719  639  551  433  299  179  89  29  -12  -59  -127  -205  -265  -305  -331  -345  -348  -350  -363  -390  -422  -444  -451  -443  -422  -397  -381  -376  -366  -336  -298  -273  -268  -269  -267  -262  -260  -261  -265  -272  -276  -269  -247  -216  -185  -142  -70  10  59  69  68  74  86  89  72  28  -25  -63  -76  -79  -81  -71  -34  12  29  14  -13  -51  -96  -132  -158  -181  -203  -225  -239  -240  -237  -236  -238  -232  -207  -166  -127  -109  -122  -169  -232  -277  -294  -297  -300  -301  -285  -254  -228  -225  -233  -230  -204  -152  -88  -43  -33  -52  -86  -111  -119  -127  -133  -112  -65  -1  77  157  220  261  283  283  251  187  106  30  -35  -113  -214  -317  -399  -453  -484  -499  -506  -509  -510  -513  -537  -595  -667  -706  -684  -628  -581  -557  -547  -545  -545  -543  -536  -528  -526  -538  -560  -576  -573  -556  -541  -548  -598  -678  -691  -491  5  733  1472  1988  2229  2327  2364  2287  2001  1456  754  140  -197  -273  -232  -220  -285  -365  -405  -411  -394  -352  -303  -271  -260  -257  -257  -264  -281  -302  -317  -322  -323  -327  -342  -363  -364  -312  -224  -154  -125  -121  -122  -123  -126  -125  -103  -48  38  133  199  212  196  190  219  298  412  515  578  622  682  756  816  840  832  800  743  666  583  509  454  399  315  207  114  59  31  16  8  1  -37  -143  -290  -409  -477  -532  -597  -662  -710  -737  -750  -756  -757  -748  -712  -639  -550  -486  -464  -474  -492  -505  -511  -508  -494  -480  -478  -496  -528  -554  -563  -565  -566  -564  -560  -558  -558  -553  -535  -498  -436  -354  -291  -283  -328  -395  -449  -478  -497  -510  -510  -492  -470  -451  -442  -444  -451  -461  -468  -450  -396  -325  -265  -233  -248  -313  -402  -465  -484  -475  -460  -451  -451  -461  -477  -487  -470  -414  -335  -276  -254  -258  -274  -298  -322  -347  -372  -388  -382  -343  -285  -245  -250  -280  -314  -343  -371  -396  -404  -377  -313  -229  -140  -51  27  73  87  107  150  187  206  218  230  215  136  1  -137  -241  -310  -351  -369  -373  -371  -370  -365  -354  -341  -335  -333  -330  -329  -334  -348  -365  -377  -377  -372  -362  -347  -326  -303  -289  -287  -292  -296  -293  -293  -316  -395  -514  -541  -266  408  1342  2246  2892  3223  3288  3160  2888  2446  1809  1111  597  406  439  469  366  193  91  97  140  167  172  154  110  56  29  55  115  173  206  202  159  94  41  23  51  132  238  314  339  338  330  316  294  284  301  328  343  351  364  384  400  408  415  433  487  599  746  871  947  983  992  987  977  978  997  1010  977  897  806  743  716  700  647  531  377  227  109  44  27  29  24  -4  -59  -121  -168  -193  -203  -208  -219  -241  -270  -297  -322  -345  -361  -366  -365  -365  -367  -369  -370  -370  -373  -376  -371  -351  -321  -295  -281  -276  -271  -259  -235  -219  -237  -271  -274  -236  -191  -159  -136  -119  -111  -116  -131  -138  -128  -120  -134  -168  -201  -225  -243  -259  -269  -274  -275  -279  -281  -270  -227  -156  -81  -24  -4  -32  -98  -169  -210  -211  -181  -139  -97  -55  -15  -9  -68  -182  -298  -377  -414  -408  -348  -233  -94  16  66  40  -49  -157  -228  -250  -246  -233  -210  -179  -148  -118  -87  -70  -73  -80  -93  -129  -162  -166  -145  -100  -30  70  205  351  462  499  458  382  323  289  253  185  81  -37  -133  -181  -197  -200  -199  -189  -171  -154  -154  -181  -233  -300  -370  -429  -465  -482  -494  -505  -508  -505  -503  -506  -515  -523  -534  -551  -560  -546  -512  -473  -446  -435  -453  -506  -552  -470  -89  670  1645  2530  3105  3309  3193  2867  2409  1804  1073  401  -22  -161  -98  35  115  81  -29  -135  -185  -186  -165  -140  -122  -114  -112  -116  -136  -173  -210  -225  -215  -184  -151  -130  -118  -114  -113  -106  -83  -51  -24  -10  3  27  41  20  -19  -40  -9  94  257  428  560  631  649  650  671  711  745  756  757  759  770  788  803  796  744  648  542  463  416  392  377  352  305  231  126  0  -121  -217  -286  -323  -335  -332  -324  -324  -344  -380  -424  -482  -552  -606  -626  -606  -549  -473  -409  -369  -359  -381  -420  -448  -445  -393  -305  -220  -170  -160  -191  -274  -382  -451  -439  -365  -282  -234  -225  -230  -229  -213  -188  -169  -162  -164  -164  -160  -154  -151  -149  -144  -136  -127  -121  -113  -98  -76  -55  -40  -36  -47  -81  -129  -173  -210  -243  -273  -294  -301  -291  -271  -247  -228  -220  -223  -238  -263  -289  -306  -310  -299  -278  -249  -218  -201  -204  -215  -222  -223  -220  -211  -199  -190  -186  -186  -191  -203  -211  -194  -156  -129  -120  -106  -72  -10  93  239  387  479  479  391  257  126  6  -124  -271  -397  -465  -472  -439  -386  -321  -247  -171  -125  -141  -192  -234  -268  -312  -369  -440  -499  -540  -588  -634  -635  -568  -458  -357  -302  -292  -302  -315  -334  -367  -426  -513  -591  -589  -391  128  922  1735  2315  2576  2586  2467  2284  1966  1414  720  144  -144  -157  -26  66  36  -45  -93  -98  -92  -89  -90  -94  -104  -115  -121  -123  -123  -124  -125  -117  -100  -98  -130  -169  -168  -114  -38  16  35  39  51  84  138  189  224  249  280  318  359  395  420  436  461  516  590  667  750  839  899  914  901  882  862  844  837  832  808  761  716  680  634  561  463  357  262  177  87  -8  -107  -216  -330  -416  -456  -457  -440  -419  -396  -368  -345  -340  -358  -390  -406  -389  -342  -278  -223  -205  -223  -257  -280  -274  -254  -241  -238  -240  -241  -242  -242  -240  -233  -223  -212  -191  -153  -116  -100  -115  -156  -207  -243  -262  -273  -285  -293  -296  -300  -316  -345  -376  -401  -426  -438  -420  -385  -368  -380  -396  -378  -317  -228  -141  -80  -58  -102  -235  -416  -546  -569  -505  -412  -344  -311  -286  -256  -241  -254  -285  -316  -342  -354  -340  -293  -229  -173  -134  -105  -85  -68  -42  -7  29  71  119  160  183  188  168  112  30  -50  -110  -153  -181  -194  -192  -187  -199  -248  -324  -389  -419  -421  -413  -410  -429  -482  -551  -604  -627  -625  -596  -529  -457  -433  -461  -493  -499  -484  -458  -427  -399  -393  -437  -525  -542  -312  192  802  1352  1789  2104  2305  2416  2384  2092  1534  896  398  163  174  274  320  305  256  157  1  -161  -270  -309  -299  -239  -118  24  120  146  132  111  93  64  13  -51  -101  -119  -99  -45  22  78  130  187  232  258  278  303  334  369  403  426  437  441  448  470  515  565  593  600  608  637  682  734  800  882  953  995  1015  1021  1012  963  849  689  545  444  364  291  234  194  144  56  -47  -117  -130  -102  -64  -55  -118  -271  -466  -609  -659  -634  -558  -464  -396  -373  -380  -398  -416  -417  -386  -330  -281  -254  -253  -268  -289  -313  -343  -366  -355  -313  -268  -244  -236  -233  -237  -251  -271  -285  -283  -265  -234  -198  -170  -155  -160  -193  -260  -336  -389  -408  -404  -394  -384  -377  -371  -371  -371  -359  -323  -274  -239  -227  -227  -228  -233  -254  -293  -337  -371  -396  -410  -411  -402  -386  -367  -350  -338  -337  -341  -346  -363  -392  -413  -413  -399  -389  -396  -407  -410  -408  -404  -384  -322  -218  -102  3  88  137  132  74  -4  -53  -35  35  97  103  37  -77  -198  -297  -368  -406  -416  -414  -408  -407  -419  -448  -486  -516  -530  -529  -519  -506  -495  -488  -487  -505  -548  -590  -590  -545  -484  -417  -344  -289  -295  -407  -625  -857  -935  -708  -103  805  1776  2520  2884  2925  2821  2653  2339  1813  1161  563  200  113  153  137  24  -86  -122  -129  -148  -166  -159  -129  -92  -70  -67  -69  -55  -15  25  28  -6  -44  -61  -63  -60  -51  -27  11  57  103  150  201  251  288  306  310  309  312  323  336  340  344  387  495  639  756  814  848  905  989  1063  1095  1082  1044  1008  993  991  970  900  792  696  632  573  494  396  285  161  34  -65  -128  -164  -184  -193  -187  -170  -188  -263  -362  -446  -508  -561  -600  -587  -509  -406  -329  -297  -308  -356  -420  -465  -473  -442  -383  -313  -258  -242  -261  -286  -299  -301  -302  -300  -284  -250  -209  -179  -164  -158  -159  -170  -187  -199  -201  -190  -164  -132  -108  -96  -97  -119  -175  -262  -354  -419  -445  -433  -383  -293  -192  -131  -136  -182  -230  -260  -271  -265  -253  -253  -277  -311  -336  -345  -345  -338  -321  -293  -262  -239  -228  -225  -221  -214  -213  -227  -257  -295  -324  -331  -305  -254  -209  -188  -174  -147  -127  -135  -162  -181  -166  -106  -8  92  161  186  188  187  189  189  177  142  78  -1  -69  -112  -140  -158  -163  -155  -145  -151  -177  -221  -267  -306  -340  -375  -419  -482  -558  -616  -639  -629  -592  -534  -473  -437  -436  -453  -470  -483  -492  -491  -471  -432  -407  -436  -496  -488  -269  259  1052  1963  2796  3311  3400  3177  2754  2168  1475  769  167  -225  -323  -144  101  220  216  154  85  48  41  36  18  -22  -88  -161  -211  -230  -235  -238  -229  -191  -120  -44  3  15  11  7  13  33  62  88  108  121  130  135  139  153  195  261  331  393  457  524  596  682  773  840  872  880  881  879  875  877  900  946  993  1003  957  859  728  597  497  436  399  371  340  280  158  -21  -197  -299  -323  -312  -300  -302  -322  -354  -398  -459  -536  -604  -640  -643  -621  -572  -489  -391  -318  -306  -353  -415  -453  -464  -467  -460  -432  -368  -284  -223  -215  -256  -321  -377  -401  -394  -359  -297  -220  -157  -127  -126  -141  -156  -164  -168  -174  -183  -191  -197  -218  -268  -335  -382  -390  -366  -316  -260  -220  -202  -215  -253  -297  -331  -366  -415  -472  -514  -523  -502  -467  -450  -464  -479  -464  -416  -348  -287  -250  -238  -252  -295  -363  -435  -484  -498  -492  -482  -476  -469  -450  -416  -374  -331  -290  -258  -241  -240  -247  -253  -256  -256  -252  -238  -209  -173  -137  -99  -56  -25  -26  -72  -151  -229  -281  -316  -350  -387  -419  -452  -487  -514  -529  -549  -591  -642  -687  -728  -758  -766  -767  -775  -779  -743  -630  -471  -365  -377  -476  -573  -616  -614  -602  -596  -592  -618  -700  -758  -616  -171  541  1349  1991  2327  2446  2456  2361  2103  1607  911  263  -101  -175  -105  -19  23  16  -28  -88  -136  -164  -175  -176  -176  -183  -201  -215  -203  -158  -119  -112  -112  -106  -108  -108  -84  -26  46  96  116  134  171  229  289  325  328  321  314  309  326  393  516  655  764  816  822  810  797  788  785  804  861  946  1019  1060  1073  1073  1075  1083  1079  1035  930  785  637  519  440  368  280  180  78  -15  -82  -125  -162  -195  -206  -189  -167  -161  -172  -184  -189  -189  -187  -185  -183  -184  -196  -222  -254  -276  -280  -263  -219  -151  -80  -37  -37  -68  -90  -65  -3  48  62  47  26  8  -8  -10  15  59  94  107  98  68  22  -27  -72  -106  -122  -125  -123  -121  -119  -118  -125  -149  -190  -225  -238  -232  -217  -203  -200  -202  -199  -189  -172  -147  -116  -88  -67  -58  -66  -92  -131  -168  -177  -158  -135  -126  -126  -129  -128  -121  -108  -96  -90  -92  -95  -98  -112  -146  -185  -180  -91  51  173  247  298  332  338  329  319  304  272  226  155  36  -108  -212  -246  -239  -220  -198  -182  -179  -194  -222  -254  -281  -304  -325  -353  -400  -470  -552  -617  -645  -617  -523  -397  -304  -279  -299  -320  -329  -335  -352  -369  -379  -410  -519  -668  -634  -184  642  1543  2242  2635  2751  2731  2695  2565  2195  1593  909  336  16  -28  82  171  164  112  72  41  -4  -72  -143  -191  -209  -207  -190  -153  -104  -58  -20  5  10  9  24  45  56  58  57  58  62  67  66  49  14  -3  45  164  289  364  387  383  369  363  397  488  606  696  736  746  751  756  759  761  760  749  729  711  695  668  627  569  490  403  333  290  259  203  83  -81  -223  -311  -370  -429  -485  -526  -553  -579  -606  -614  -589  -554  -536  -531  -524  -516  -529  -569  -607  -626  -638  -642  -632  -621  -624  -644  -676  -707  -725  -725  -706  -674  -640  -612  -588  -564  -544  -533  -529  -526  -519  -504  -482  -474  -498  -541  -577  -599  -621  -650  -685  -720  -743  -742  -719  -687  -662  -648  -641  -638  -640  -645  -647  -653  -677  -712  -737  -738  -724  -710  -698  -687  -679  -670  -662  -660  -668  -679  -672  -633  -582  -559  -573  -600  -619  -624  -620  -605  -572  -532  -504  -495  -495  -499  -505  -513  -518  -520  -521  -526  -532  -520  -460  -345  -210  -111  -70  -67  -73  -75  -77  -86  -115  -172  -249  -319  -375  -441  -528  -608  -651  -659  -652  -636  -603  -555  -507  -475  -463  -471  -488  -501  -508  -515  -523  -530  -534  -540  -542  -522  -466  -388  -328  -298  -283  -266  -252  -274  -362  -446  -348  87  843  1707  2434  2901  3101  3094  2945  2636  2110  1434  793  355  191  237  329  337  247  119  12  -46  -62  -60  -54  -41  -11  31  75  114  157  200  232  251  258  250  228  198  185  204  238  277  331  391  430  432  413  396  398  427  489  588  702  792  846  879  904  926  950  974  996  1038  1128  1255  1366  1418  1398  1316  1209  1132  1104  1100  1104  1108  1079  967  771  559  402  313  269  245  223  191  156  130  123  122  107  64  4  -53  -91  -106  -106  -107  -115  -128  -140  -144  -136  -115  -85  -55  -27  0  24  36  19  -16  -48  -41  22  111  175  194  182  158  133  106  74  41  16  3  0  0  -4  -16  -22  -18  -16  -23  -32  -27  -9  12  34  63  90  90  47  -17  -72  -102  -115  -125  -137  -145  -148  -153  -165  -179  -182  -174  -165  -161  -161  -159  -153  -151  -166  -193  -209  -191  -136  -79  -55  -73  -125  -192  -251  -298  -335  -341  -297  -227  -174  -156  -151  -140  -112  -68  -18  17  31  32  44  83  145  218  290  352  396  418  403  311  131  -69  -207  -262  -268  -256  -242  -242  -280  -359  -449  -522  -566  -580  -572  -550  -517  -479  -444  -416  -396  -391  -400  -412  -420  -423  -423  -423  -423  -420  -416  -413  -416  -437  -492  -571  -592  -394  119  860  1614  2190  2489  2554  2497  2353  2040  1506  834  218  -126  -109  111  273  267  158  49  -23  -71  -101  -106  -95  -81  -71  -67  -63  -53  -35  -18  -10  -8  -3  5  8  -1  -14  -3  53  142  216  254  279  325  384  424  434  425  415  430  503  635  773  857  878  867  852  857  902  985  1063  1100  1087  1037  994  992  1027  1069  1091  1088  1076  1049  963  787  559  360  241  195  184  169  113  7  -112  -197  -236  -247  -245  -239  -230  -223  -233  -274  -332  -362  -342  -307  -291  -290  -292  -290  -291  -308  -338  -353  -337  -309  -294  -287  -277  -267  -259  -246  -224  -198  -181  -186  -214  -256  -297  -321  -327  -327  -328  -333  -337  -340  -341  -342  -342  -341  -338  -336  -333  -329  -324  -320  -319  -330  -363  -420  -487  -549  -599  -651  -698  -689  -583  -418  -288  -240  -256  -306  -376  -455  -531  -587  -607  -576  -512  -456  -428  -418  -425  -463  -548  -660  -740  -727  -586  -351  -126  10  61  42  -59  -248  -466  -622  -683  -678  -639  -573  -481  -376]
